time,channel1,channel2,channel3,channel4,channel5,channel6,channel7,channel8,position
34.14476299285889,4,5,2,5,5,3,6,2,1
34.14476823806763,-2,0,-2,0,-1,-4,-6,-2,1
34.14578700065613,-1,-1,-4,-8,-6,-1,-2,-6,1
34.145790100097656,0,1,4,6,4,2,4,4,1
34.1467547416687,-3,-5,-6,-15,-14,-9,-9,-7,1
34.146772384643555,2,0,1,5,4,4,4,3,1
34.14957928657532,0,0,0,2,3,-1,0,0,1
34.149582624435425,0,0,0,4,0,-2,-1,-1,1
34.16569781303406,-1,-3,-2,-3,-2,1,1,0,1
34.16570472717285,0,-2,0,-1,-1,-2,1,-1,1
34.16716027259827,-8,-9,-8,-12,-10,-4,-7,-14,1
34.16716551780701,3,3,4,5,6,0,-2,1,1
34.179017305374146,-3,-4,-6,-9,-6,0,-1,0,1
34.17902207374573,0,2,2,1,0,2,7,1,1
34.18707036972046,-2,-2,1,5,4,1,0,-3,1
34.187074422836304,-3,-2,-2,-5,-2,2,3,-1,1
34.19393467903137,1,1,1,6,3,-1,-1,-3,1
34.193939208984375,-1,-3,-1,-1,1,-1,-1,-2,1
34.20954251289368,4,4,1,-1,1,-2,1,3,1
34.209545612335205,-7,-9,-11,-14,-13,-7,-10,-7,1
34.215864419937134,1,4,4,7,8,5,5,6,1
34.21586608886719,1,-2,-3,-7,-6,-4,-3,-2,1
34.22471570968628,0,1,1,3,1,0,-2,7,1
34.22472071647644,1,2,1,1,3,0,1,0,1
34.24004292488098,1,1,1,3,3,1,1,0,1
34.24005055427551,0,-2,-2,-3,0,-2,-3,-3,1
34.247215032577515,2,2,3,4,2,0,1,3,1
34.24721884727478,-7,-9,-9,-16,-12,0,10,2,1
34.25364089012146,11,9,8,7,4,-3,-21,1,1
34.25364589691162,-2,-2,-1,-1,3,8,5,-1,1
34.2694091796875,4,2,3,3,-2,-3,-1,0,1
34.26941442489624,-1,-1,-3,-2,2,3,4,-2,1
34.27661371231079,-3,-7,-2,0,1,2,2,-4,1
34.276615619659424,-1,1,-1,-3,-3,-2,-5,0,1
34.2841420173645,-1,0,-2,1,1,2,0,2,1
34.28414487838745,4,3,3,2,0,-2,-6,-3,1
34.30801486968994,-1,-1,-2,-1,-1,-1,2,-2,1
34.30802011489868,1,1,0,5,1,-1,-1,-1,1
34.30918574333191,-5,-8,-11,-20,-13,-5,-2,-3,1
34.30918908119202,3,3,4,5,3,-2,-2,2,1
34.31424021720886,-1,-2,0,4,5,0,5,1,1
34.3142466545105,-2,-2,-5,-5,-4,-3,-1,0,1
34.329320430755615,3,3,3,6,4,3,0,3,1
34.329323530197144,2,-1,-2,-1,0,3,1,5,1
34.33613967895508,-7,-1,0,0,-1,-2,6,-5,1
34.336142778396606,-1,-4,-2,3,3,-1,7,-7,1
34.344828367233276,3,2,-4,-6,-6,-3,-5,2,1
34.34483242034912,-3,-1,1,1,-1,-1,-3,-3,1
34.35840606689453,2,1,1,3,2,4,5,3,1
34.358407735824585,-1,-1,-2,1,3,4,3,0,1
34.36715221405029,-9,-11,-12,-22,-22,-14,-15,-10,1
34.36715745925903,2,2,3,5,3,2,2,0,1
34.37392592430115,1,2,-1,-1,-1,-4,0,-2,1
34.37392997741699,2,2,2,0,0,-1,-4,0,1
34.39005208015442,1,0,5,9,9,4,3,-3,1
34.39005732536316,-2,0,-2,-3,-2,-1,-3,-1,1
34.39694333076477,-2,-2,-2,-1,-4,0,-2,-1,1
34.396949768066406,-4,-5,-7,-9,-9,-5,-8,-3,1
34.404289960861206,-2,-1,2,7,6,4,5,0,1
34.40429949760437,1,0,0,-1,-1,-3,3,8,1
34.4189817905426,-1,-1,1,1,3,2,-3,-6,1
34.418986320495605,0,4,3,5,7,2,-2,-2,1
34.42721486091614,2,1,-4,-10,-10,-8,-5,2,1
34.42721939086914,2,-1,1,2,0,-1,-1,0,1
34.43400716781616,-12,-7,-6,-6,-5,-2,0,-10,1
34.434011459350586,4,5,5,7,4,1,-4,5,1
34.449918270111084,0,0,1,7,7,3,2,-4,1
34.44992470741272,-2,-1,-4,-5,-3,-3,-5,-5,1
34.45654821395874,1,-1,-1,-4,-5,-4,-2,0,1
34.45655345916748,-2,-3,-3,-5,-6,-2,-3,-3,1
34.46384572982788,0,1,3,7,6,4,6,2,1
34.46384906768799,2,2,5,9,5,3,6,-3,1
34.47887349128723,-6,-8,-13,-18,-15,-7,-11,-3,1
34.47887945175171,0,-1,-1,-2,-3,-1,1,0,1
34.48717641830444,1,1,1,3,4,2,2,3,1
34.48718070983887,3,2,1,7,7,4,4,-2,1
34.493919372558594,-3,-4,-5,-10,-3,-3,-7,0,1
34.49392342567444,3,-3,-1,-1,-3,1,5,3,1
34.510000467300415,-1,4,-1,1,1,2,3,1,1
34.5100040435791,2,2,-1,8,3,1,1,-1,1
34.51696300506592,-6,-9,-13,-27,-25,-14,-16,-6,1
34.516969442367554,-4,-4,-1,-2,-1,2,1,2,1
34.5239143371582,1,-1,4,6,6,2,0,0,1
34.52391815185547,1,0,-3,-5,-1,2,0,0,1
34.539480447769165,4,3,2,9,7,3,3,2,1
34.53948736190796,2,0,-2,-1,-1,0,3,0,1
34.54709839820862,-2,-1,2,0,-2,-3,-7,-2,1
34.54710268974304,-7,-7,-7,-14,-13,-9,-12,-8,1
34.55397391319275,2,1,3,6,6,3,5,0,1
34.553980112075806,-2,-3,-3,-2,-1,0,-2,-1,1
34.56975030899048,2,2,3,4,3,2,3,-1,1
34.56975483894348,-6,-4,-5,-6,-5,-2,-2,1,1
34.57656788825989,4,3,5,9,6,2,5,2,1
34.57657432556152,-7,-7,-12,-13,-11,-9,-10,-9,1
34.58397173881531,-1,-6,-2,-3,-3,-1,1,-5,1
34.58397579193115,2,3,2,4,3,0,-4,1,1
34.599148750305176,2,1,3,5,3,2,3,-2,1
34.59915375709534,2,5,4,8,6,0,3,0,1
34.60723686218262,-4,-3,-4,-4,-1,1,-1,3,1
34.6072416305542,-4,-4,-5,-11,-9,-3,1,-4,1
34.61387658119202,1,5,3,9,6,4,3,-1,1
34.6138813495636,2,1,0,1,0,-1,0,2,1
34.6296923160553,1,-2,-2,-2,-4,-1,1,-1,1
34.62969708442688,-4,-1,0,-1,-3,-1,-2,-3,1
34.6368772983551,2,2,3,3,1,1,4,6,1
34.63688254356384,-1,-1,-1,-1,2,2,-2,-1,1
34.6439847946167,-1,0,1,0,-1,-3,1,0,1
34.643990993499756,-3,-4,-3,-2,0,0,-4,-6,1
34.65911555290222,-2,-2,-4,-3,-3,0,-3,-1,1
34.65912055969238,2,2,2,3,2,1,0,1,1
34.66738224029541,5,1,3,7,4,3,4,0,1
34.66738700866699,3,3,2,3,5,2,0,1,1
34.68169832229614,-6,-6,-6,-10,-8,-7,-11,-3,1
34.681702613830566,2,4,3,1,1,3,4,-4,1
34.69204926490784,-2,0,-1,-2,2,0,2,-4,1
34.69205570220947,-3,-6,-4,-3,-6,-6,-3,-1,1
34.698545694351196,1,0,0,2,2,-1,-2,2,1
34.69855189323425,-3,-2,-1,-4,-3,-2,-3,1,1
34.712437868118286,2,0,-2,0,1,1,2,2,1
34.712440729141235,0,-2,1,1,2,4,2,1,1
34.718581676483154,0,0,-2,-2,-1,2,5,0,1
34.71858477592468,1,0,-1,-5,-5,-2,-5,0,1
34.72746777534485,0,-1,1,3,2,3,3,3,1
34.72747039794922,1,1,0,2,3,1,-2,4,1
34.73349475860596,-2,-2,-2,-3,-1,0,-2,-4,1
34.733497619628906,-3,-4,-2,-3,-2,-1,-7,-5,1
34.75390553474426,1,1,0,0,0,-2,-3,0,1
34.7539165019989,0,-4,-3,-6,-3,-2,0,-2,1
34.75637245178223,3,4,5,7,4,3,5,5,1
34.75637912750244,-2,-2,1,1,-1,-2,0,-1,1
34.77370810508728,-2,1,0,2,4,0,-1,3,1
34.77371430397034,5,0,1,4,-1,-1,3,-5,1
34.77852654457092,-2,-4,-6,-8,-5,-4,-8,-2,1
34.77852964401245,-2,0,-1,0,0,1,1,1,1
34.78749704360962,-5,-6,-5,-2,-1,-1,1,1,1
34.78750038146973,4,5,1,-5,-3,-1,-6,1,1
34.794076681137085,-3,-4,1,5,2,1,3,1,1
34.79408288002014,-1,-2,-1,2,3,0,-2,1,1
34.811208724975586,-5,-5,-4,-7,-7,-5,-7,-8,1
34.81121492385864,0,3,1,3,2,2,2,6,1
34.82450222969055,-2,-4,-3,-4,-4,-1,-3,-5,1
34.824509143829346,0,-1,-1,0,2,1,2,-1,1
34.83378267288208,0,3,3,2,2,0,0,-2,1
34.833786725997925,-1,-2,0,4,3,1,5,0,1
34.838937282562256,9,6,0,-10,-10,-6,-13,2,1
34.83894228935242,-3,-2,1,0,-3,-2,0,0,1
34.84821963310242,0,1,-2,0,0,-1,0,-2,1
34.84822344779968,-2,-2,1,0,2,-4,-1,-2,1
34.85458421707153,0,1,5,12,9,5,10,8,1
34.854592084884644,0,-1,-7,-9,-7,-4,-11,-10,1
34.871220111846924,4,2,0,-1,-1,1,1,3,1
34.87122440338135,-1,1,1,0,-1,0,-1,3,1
34.876405477523804,-3,-4,-2,0,0,0,4,-3,1
34.87640929222107,2,1,1,-1,0,0,2,0,1
34.89315605163574,0,2,2,6,5,3,0,-5,1
34.89315915107727,0,-4,-7,-16,-14,-5,-4,-4,1
34.89880037307739,-2,0,-1,0,-1,0,-1,0,1
34.89880347251892,2,1,4,6,6,3,5,2,1
34.90814256668091,-3,-2,-1,-3,-6,-1,-2,-3,1
34.908146142959595,-3,-3,-2,0,-1,0,-3,-3,1
34.91385793685913,2,2,0,6,7,5,4,2,1
34.9138617515564,-2,-2,-3,-5,-5,-2,-3,-1,1
34.93100166320801,1,-4,-2,-1,0,3,6,3,1
34.93100666999817,-1,1,3,2,2,0,0,6,1
34.936814308166504,-2,-2,0,2,3,-1,-3,-1,1
34.93681979179382,6,9,5,8,6,3,5,6,1
34.952489614486694,-6,-8,-10,-18,-17,-10,-10,-6,1
34.952492475509644,0,1,1,2,0,-1,0,-2,1
34.95863652229309,-4,-3,0,-2,-2,-2,-2,-8,1
34.95863962173462,-1,-1,2,5,4,1,5,2,1
34.96747827529907,-1,1,-1,-1,0,-2,-8,1,1
34.96748089790344,-3,-2,-1,-1,0,-3,-5,-4,1
34.97362208366394,-1,0,0,3,3,-2,2,0,1
34.97362518310547,-2,-1,0,-3,-4,-4,-5,-2,1
34.99173426628113,0,1,-2,-3,-2,0,1,-2,1
34.99174189567566,-1,-2,3,4,1,-2,-6,-5,1
34.99705171585083,-1,-1,1,-2,-2,-1,-2,4,1
34.997058629989624,-6,-4,-3,-1,-2,0,1,-14,1
35.01416254043579,0,4,-1,-2,-4,-6,-6,-2,1
35.01416897773743,0,2,-1,2,5,3,5,1,1
35.01869487762451,1,-1,-3,-3,-4,-1,1,0,1
35.018699169158936,2,-1,1,2,0,-1,0,0,1
35.02766251564026,-2,-4,-4,-7,-2,5,2,-3,1
35.02766513824463,-3,-3,-4,-8,-9,-6,-7,-5,1
35.04136681556702,-2,0,0,-1,-1,2,2,0,1
35.041369676589966,-1,-4,-2,0,2,-2,0,1,1
35.05002212524414,0,-1,0,0,-1,-1,-1,0,1
35.050023794174194,2,2,1,1,4,4,6,3,1
35.05604600906372,-3,-4,-5,-5,-6,-4,-5,-7,1
35.05604958534241,5,4,2,3,0,0,2,5,1
35.079833984375,1,1,1,0,1,-3,-1,2,1
35.079840660095215,-3,-3,0,2,0,0,-3,-5,1
35.08840823173523,1,2,1,1,0,1,2,0,1
35.08841609954834,-5,-6,-5,-6,-6,-2,-1,-2,1
35.09151029586792,0,-2,0,1,-1,-3,-4,1,1
35.09151577949524,-2,2,-3,-2,0,-1,-4,-5,1
35.10175442695618,2,1,6,6,4,1,4,1,1
35.101759910583496,1,3,-3,0,3,0,0,-1,1
35.11724853515625,-5,-4,-5,-7,-5,-1,-2,-2,1
35.11725330352783,0,1,3,4,3,2,2,3,1
35.11825776100159,-1,-1,1,1,3,2,1,-1,1
35.11826157569885,3,1,-4,-3,-3,-4,-2,3,1
35.135157346725464,-1,0,0,2,1,-1,1,0,1
35.135162591934204,0,-1,0,4,1,3,2,2,1
35.13908576965332,-8,-5,-10,-16,-11,-7,-11,-7,1
35.13909149169922,-4,-7,3,7,5,4,4,-3,1
35.15404152870178,9,12,5,9,7,4,3,3,1
35.15404653549194,-2,-3,-6,-9,-6,-4,-5,-1,1
35.16169500350952,-2,-3,-1,1,3,1,2,-3,1
35.1616997718811,-4,-3,-3,-8,-6,-5,-13,-4,1
35.17733812332153,-1,0,2,5,2,-1,1,-2,1
35.177345514297485,-2,-4,-4,-9,-7,-2,0,-6,1
35.1788284778595,0,0,0,-2,-3,-3,0,1,1
35.1788330078125,-2,1,0,0,0,-2,-1,1,1
35.193549394607544,1,0,2,1,-3,0,2,0,1
35.19355392456055,0,-1,-2,-2,3,0,-3,-2,1
35.19951677322388,-2,-4,-4,-9,-7,-3,-6,-4,1
35.19952321052551,0,-1,2,-1,0,0,-1,2,1
35.21348166465759,-3,0,2,4,5,2,4,-2,1
35.2134850025177,-1,-2,-3,-1,-3,-3,-3,-3,1
35.2218713760376,4,4,1,2,1,-2,3,2,1
35.221877336502075,-4,-6,-5,-13,-12,-4,-7,-6,1
35.237496852874756,1,-2,2,3,3,1,3,3,1
35.23750138282776,1,3,1,0,0,0,4,1,1
35.238436698913574,0,1,2,3,4,1,-3,-3,1
35.2384397983551,0,1,0,4,3,2,3,0,1
35.2533016204834,-7,-5,-5,-5,-5,-2,-5,-2,1
35.25330662727356,4,4,-1,-4,-1,-3,1,3,1
35.25898742675781,-5,-3,-1,2,0,0,0,-4,1
35.258991956710815,1,1,-2,0,2,1,1,2,1
35.27397656440735,-4,-2,-2,-4,-4,0,-3,-3,1
35.27398157119751,-1,-2,0,0,-5,-6,-7,0,1
35.281670331954956,5,3,1,5,6,4,6,8,1
35.28167462348938,-3,-3,-4,-5,-4,-1,-4,-9,1
35.29715633392334,12,7,4,6,2,1,2,10,1
35.29716157913208,0,-2,-3,-4,-3,3,1,4,1
35.29824876785278,-2,-1,-2,2,2,2,2,-1,1
35.29825234413147,3,0,0,-1,-3,-2,0,5,1
35.313257694244385,2,0,2,5,6,2,3,-2,1
35.31326150894165,-1,-2,-2,-9,-10,-9,-7,-7,1
35.31884980201721,-2,-2,-3,-5,-4,1,-1,0,1
35.31885266304016,6,6,6,4,4,2,3,7,1
35.334004640579224,-4,-5,-8,-9,-4,-2,-1,-3,1
35.334009408950806,-1,0,3,7,5,3,1,1,1
35.34977173805237,0,0,3,3,0,-3,-3,-4,1
35.349777698516846,-3,-1,-4,-6,-4,-5,-6,-4,1
35.357797622680664,-3,-3,-2,-4,0,-2,-3,-6,1
35.357802391052246,-2,-3,-1,3,3,4,3,2,1
35.35945224761963,3,4,0,1,0,-2,1,1,1
35.359461069107056,2,-2,-3,-6,-4,1,2,-2,1
35.373870849609375,-6,-4,0,0,-2,-4,-14,-15,1
35.3738751411438,4,4,2,6,7,3,7,4,1
35.37893891334534,2,1,5,5,2,-2,0,-1,1
35.37894344329834,-3,-5,-4,-6,-2,-1,-1,2,1
35.395726919174194,3,1,-1,-2,0,3,3,0,1
35.39573121070862,-2,-2,0,3,1,1,1,-1,1
35.41016507148743,4,3,2,6,5,3,2,1,1
35.41017031669617,1,2,2,5,3,0,0,1,1
35.41747784614563,-4,-10,-10,-18,-17,-10,-11,-3,1
35.41748571395874,-1,1,4,7,7,3,2,2,1
35.41888642311096,0,0,-1,-2,0,0,4,3,1
35.418890714645386,0,-2,0,2,0,-2,0,0,1
35.43359875679016,-3,-4,-2,0,-3,-4,-2,-2,1
35.43360376358032,6,2,0,-4,-5,-3,-5,2,1
35.44772672653198,-5,-4,-3,-8,-4,-3,-2,-3,1
35.4477334022522,0,1,2,3,2,1,-1,-2,1
35.454113245010376,0,1,0,5,4,3,0,3,1
35.45411825180054,-3,-3,-2,-2,-3,-2,4,1,1
35.46162128448486,-3,-6,-3,-5,-2,-1,-5,-7,1
35.4616265296936,-2,0,-1,2,1,1,-3,0,1
35.47724986076355,0,1,0,1,2,1,3,1,1
35.47725486755371,1,2,1,3,2,1,0,3,1
35.47822976112366,0,0,-1,-5,-7,-7,-8,-7,1
35.478233337402344,-6,-7,-3,-1,3,1,1,-4,1
35.49360275268555,4,0,1,2,0,1,2,1,1
35.49360704421997,-4,-4,-1,2,2,1,0,-3,1
35.49894666671753,-1,1,-5,-10,-8,-5,-3,0,1
35.49895119667053,-1,-2,2,4,-1,0,-4,-6,1
35.514018058776855,2,5,2,5,3,-1,0,1,1
35.5140221118927,-1,-2,-2,-3,-2,0,1,-2,1
35.52163600921631,0,-1,1,5,2,0,1,3,1
35.521639585494995,-2,-4,-5,-6,-6,-4,-4,-1,1
35.537118673324585,1,-1,-3,-6,-3,3,2,2,1
35.53712320327759,0,0,1,6,5,1,1,-3,1
35.53806209564209,-1,-3,-6,-13,-13,-7,-9,-5,1
35.53806471824646,1,-1,-2,-3,-1,3,3,1,1
35.554425954818726,-1,-1,0,0,0,0,1,0,1
35.55443263053894,-2,0,4,5,3,3,3,0,1
35.559345722198486,0,-1,0,1,3,3,0,-6,1
35.55935096740723,0,-2,1,1,-1,1,-2,0,1
35.57443046569824,2,3,3,1,1,0,7,7,1
35.57443594932556,3,-1,3,1,1,-1,0,1,1
35.58172941207886,-3,-3,-7,-9,-8,-6,-9,-1,1
35.58173489570618,0,1,5,7,7,3,4,0,1
35.59732723236084,-5,-4,-5,-8,-10,-3,-5,-7,1
35.59733200073242,2,2,-1,-1,1,0,3,1,1
35.59941864013672,-1,-4,-1,3,5,3,3,0,1
35.59942579269409,3,3,0,-1,-1,-1,0,9,1
35.6133234500885,0,-1,1,3,6,2,2,-2,1
35.613327980041504,-2,-2,-2,-3,-6,-4,-5,-4,1
35.61892008781433,-2,-5,-5,-5,0,7,5,-2,1
35.618924617767334,-3,-1,-4,-5,-4,-5,-4,-6,1
35.63408708572388,1,0,0,2,0,-2,-5,-3,1
35.634092807769775,-4,-2,-3,-2,-1,-2,-1,-2,1
35.64206528663635,0,-1,4,5,2,1,1,1,1
35.64207196235657,1,-1,-5,-10,-6,-4,-7,-1,1
35.65746188163757,-1,-2,-1,1,0,2,4,6,1
35.65747046470642,-2,1,0,2,1,-2,-5,-10,1
35.65894556045532,1,1,-1,1,-2,-2,3,3,1
35.65895318984985,-4,-1,-3,-6,-4,-3,2,-3,1
35.67498016357422,0,1,2,5,3,0,-1,-1,1
35.67498540878296,0,-3,-6,-5,-4,0,0,0,1
35.679938077926636,-4,-2,-1,2,3,2,3,-4,1
35.679945945739746,2,0,0,-1,-4,-1,-5,2,1
35.69416904449463,-1,0,-2,3,1,-1,-1,-2,1
35.694175004959106,0,-1,-2,-2,-2,-2,1,1,1
35.701921463012695,-1,0,2,4,2,-1,0,-2,1
35.701926946640015,-2,-4,-4,-10,-6,-3,-3,-1,1
35.71751832962036,1,-1,1,3,2,1,-1,0,1
35.71752429008484,0,-1,-1,-4,-2,-1,-6,0,1
35.71897625923157,-1,1,5,8,7,2,6,1,1
35.71898031234741,-3,-1,-3,-8,-7,-5,-3,-7,1
35.732545137405396,-2,-2,-1,-2,-3,-4,-3,-1,1
35.732547760009766,2,2,1,2,1,-1,-1,3,1
35.73867607116699,-1,1,-4,-11,-8,-3,-3,-2,1
35.73867917060852,2,-1,3,8,2,3,5,2,1
35.753450870513916,2,-1,-1,1,1,2,0,-1,1
35.75345325469971,2,-1,-4,-2,-2,1,1,1,1
35.761117935180664,3,3,1,5,0,-1,-3,-1,1
35.761120319366455,2,0,-1,-1,2,-1,2,-1,1
35.77735161781311,-4,-3,-4,-7,-5,-2,-4,-3,1
35.77735686302185,-4,-3,2,1,0,-3,-6,-3,1
35.77844595909119,4,4,2,3,4,3,4,6,1
35.778449296951294,-2,0,0,6,2,4,3,-2,1
35.7937114238739,-1,2,0,-5,-5,-5,-3,0,1
35.79371643066406,-2,-2,-2,-1,-1,1,1,-1,1
35.79903864860535,-2,-4,-3,-3,-4,-3,-6,-2,1
35.799044132232666,1,2,5,7,7,3,4,2,1
35.8148307800293,0,1,0,2,-1,0,-1,-2,1
35.81483793258667,-3,-2,-4,-4,-7,-4,-2,-3,1
35.82139277458191,0,0,-1,-3,-2,-3,-4,0,1
35.82139730453491,-4,-1,2,7,5,0,1,-2,1
35.836989402770996,-1,-1,-6,-11,-8,-1,0,-2,1
35.83699560165405,1,-1,0,-2,0,0,-1,-1,1
35.83786368370056,-2,2,2,5,3,1,-1,-1,1
35.83786749839783,-2,-1,-3,-7,-8,-4,-3,-1,1
35.85283184051514,1,0,4,7,5,0,-2,-5,1
35.85283637046814,-3,-5,-9,-13,-8,-4,-2,-4,1
35.85871958732605,-1,-2,1,-1,0,0,-1,1,1
35.858723402023315,-1,1,1,2,-1,0,-1,0,1
35.87423777580261,-1,1,2,3,1,-4,-6,-3,1
35.874245405197144,0,-1,-1,0,4,3,4,1,1
35.88170766830444,0,-2,-2,-2,-4,-1,-1,1,1
35.88171315193176,2,2,1,1,0,1,0,0,1
35.89729857444763,1,0,-3,1,2,0,3,2,1
35.89730501174927,-2,-1,-1,0,-1,-3,-1,2,1
35.89839458465576,1,0,0,-2,0,-1,2,-1,1
35.89839816093445,1,0,2,5,7,1,1,-1,1
35.91965198516846,-1,-2,-1,-5,-4,0,3,-1,1
35.91965627670288,-8,-8,-7,-7,-7,-2,-7,-7,1
35.92064380645752,4,6,4,6,1,-3,-4,3,1
35.92064666748047,1,1,2,6,5,1,2,2,1
35.93404722213745,-3,-4,-7,-9,-4,-1,-6,-5,1
35.934051752090454,-2,-1,-1,-1,2,1,6,2,1
35.94181442260742,0,-3,0,2,-1,-4,-1,-5,1
35.94181990623474,-1,-3,-3,-6,-4,-3,-3,-2,1
35.9571578502655,0,1,1,4,7,5,4,4,1
35.95716333389282,3,2,5,6,3,1,3,1,1
35.95840501785278,-2,-2,-9,-13,-9,-2,-5,-3,1
35.958409547805786,1,-2,1,0,-1,-2,-1,1,1
35.980297327041626,0,-2,-3,-5,-4,-1,1,0,1
35.98030495643616,4,4,3,4,3,3,-4,-2,1
35.98203420639038,-2,-1,0,2,3,-1,-1,2,1
35.98204302787781,-1,-2,-6,-5,-2,0,0,-1,1
35.9947714805603,-2,-2,-1,-1,-3,-1,-2,-1,1
35.99478220939636,3,4,2,4,4,0,0,0,1
36.001819133758545,-2,-3,-5,-6,-6,0,-1,-4,1
36.001832008361816,0,2,3,7,3,-1,-1,0,1
36.01729774475098,-4,-7,-9,-20,-15,-6,-6,-6,1
36.01730251312256,-3,-2,-1,1,-2,-1,0,-1,1
36.01830053329468,1,0,2,2,3,1,1,1,1
36.01830434799194,0,2,-1,1,0,-1,-3,-1,1
36.03409504890442,2,2,2,3,-2,-2,4,0,1
36.03410029411316,-3,-3,-5,-7,-6,-5,-8,-5,1
36.03888535499573,-2,-2,-1,-1,0,2,3,2,1
36.03888916969299,2,3,1,4,5,4,4,1,1
36.054203271865845,6,4,3,6,3,2,2,5,1
36.05420970916748,-3,-2,-6,-8,-10,-4,-4,-1,1
36.0617470741272,-2,-4,-5,-4,1,1,2,-4,1
36.061753273010254,2,0,2,2,6,3,3,3,1
36.077141523361206,-2,0,2,8,4,0,1,-1,1
36.077147483825684,3,0,1,-2,-2,0,1,1,1
36.08522057533264,-2,-1,1,5,4,0,-2,-8,1
36.08522844314575,-4,-5,-6,-10,-10,-5,-4,-4,1
36.099703311920166,-3,-1,-2,-1,2,1,1,-4,1
36.099709033966064,0,3,3,4,3,2,4,0,1
36.100804567337036,3,1,5,7,6,3,6,5,1
36.10080814361572,-3,-3,-4,-4,-4,0,-1,-6,1
36.1140923500061,-7,-5,-7,-10,-7,-3,-7,-5,1
36.114098072052,3,0,-1,0,1,4,1,4,1
36.12204432487488,0,-1,0,0,-1,-1,1,-1,1
36.12205100059509,0,1,0,0,1,0,-1,0,1
36.13654398918152,1,1,1,6,4,2,4,3,1
36.13654947280884,2,-1,-2,-1,-2,-2,0,1,1
36.144418239593506,-2,-2,-4,-2,-5,-2,-2,0,1
36.14442467689514,-1,-2,-2,-3,-5,-6,-4,1,1
36.15968608856201,0,0,2,5,6,2,2,0,1
36.15969276428223,2,0,0,3,2,-2,-2,-3,1
36.16070747375488,-6,-2,-6,-10,-8,-4,-6,-1,1
36.160712480545044,2,1,1,2,1,1,0,-1,1
36.17401909828186,2,-1,-2,-2,-5,0,2,1,1
36.174023151397705,-2,-1,2,6,4,-1,-3,-3,1
36.18270778656006,-3,-5,-5,-9,-7,-2,1,-1,1
36.1827118396759,-4,-2,-4,-4,-2,-3,-10,-8,1
36.19665551185608,-2,-2,-4,-8,-6,-4,-3,-1,1
36.19666075706482,1,2,4,6,4,3,1,1,1
36.20415687561035,6,3,2,2,1,1,2,3,1
36.20416212081909,-1,-3,-3,-1,-2,2,0,0,1
36.22025942802429,-2,-3,-1,-2,-1,-2,-6,-1,1
36.22026777267456,-2,-2,-2,-5,-4,-3,-2,-3,1
36.222177028656006,0,0,1,1,2,1,0,-2,1
36.222182512283325,0,0,0,-2,-3,-1,3,4,1
36.23409700393677,2,2,4,6,2,-1,0,-1,1
36.234102964401245,0,-3,-1,-1,0,2,0,1,1
36.24240756034851,-3,-2,-2,-4,-2,-3,-5,-2,1
36.242414712905884,0,1,2,3,4,2,5,0,1
36.25704002380371,1,3,1,3,3,1,0,-2,1
36.25704765319824,-5,-6,-7,-9,-9,-5,-6,-4,1
36.2643187046051,0,0,0,2,-1,0,2,3,1
36.26432466506958,-1,-2,-1,-1,0,-3,-6,-10,1
36.27977919578552,1,1,2,4,0,-1,0,1,1
36.27978444099426,-2,-2,-3,-3,-2,-1,0,0,1
36.28076386451721,1,-1,-1,-3,-4,0,2,5,1
36.28076696395874,-3,-3,-5,-7,-7,-4,-9,-2,1
36.29398798942566,1,1,1,4,4,2,1,2,1
36.29399251937866,2,2,1,4,4,2,1,-1,1
36.30161261558533,1,3,4,5,3,-1,1,-1,1
36.30161786079407,-3,-5,-8,-14,-13,-3,-2,0,1
36.31680417060852,-2,-2,1,1,2,1,-2,-3,1
36.31680965423584,-1,1,-2,1,2,2,1,0,1
36.323899030685425,-2,-1,-3,-4,-3,-4,-3,0,1
36.32390284538269,3,4,5,11,8,1,3,3,1
36.33952522277832,-2,-4,-2,1,3,2,0,-1,1
36.33952975273132,-2,-3,-6,-17,-14,-6,-6,-1,1
36.34053564071655,-2,0,3,3,4,1,-4,-7,1
36.34053993225098,0,-2,0,-1,-2,0,0,0,1
36.35407900810242,2,2,1,3,0,-3,2,5,1
36.354083776474,-2,-1,2,1,4,-1,-2,-4,1
36.36168098449707,-4,-4,-6,-10,-11,-8,-6,-3,1
36.36168622970581,-2,1,1,1,2,-3,2,-3,1
36.376636266708374,-1,-1,-3,-5,-6,-1,3,0,1
36.376641511917114,4,3,5,9,3,-3,-5,2,1
36.38406181335449,-6,-7,-7,-13,-6,1,-3,-3,1
36.38406705856323,-2,2,0,2,2,3,0,0,1
36.399864196777344,2,1,2,4,6,1,3,3,1
36.39987111091614,-1,-4,-3,-3,-2,-1,-3,0,1
36.4013557434082,4,2,2,7,5,0,4,4,1
36.40136122703552,1,-1,-1,-3,-2,-1,-1,-1,1
36.42244601249695,-1,-2,-2,-4,-2,1,-1,-4,1
36.42245173454285,-1,0,-1,-3,-3,-1,1,1,1
36.42456841468811,4,5,4,9,8,3,1,2,1
36.424580335617065,-1,-2,-3,-3,-4,-3,-2,-1,1
36.4366180896759,0,-1,-3,-3,-3,-5,-2,-4,1
36.4366250038147,-2,0,0,0,-1,2,5,0,1
36.444095611572266,1,0,1,4,2,2,4,1,1
36.444101095199585,-2,-3,-1,2,3,2,-2,-5,1
36.4598822593689,-3,-5,-3,-7,-10,-5,-6,-4,1
36.45988941192627,-1,1,1,0,0,-3,1,1,1
36.461150884628296,0,-1,0,2,2,4,2,-2,1
36.46115565299988,2,1,3,6,6,2,0,-1,1
36.47410821914673,3,1,-2,-1,0,2,0,1,1
36.474116802215576,-3,-4,-2,-1,-1,1,3,-3,1
36.48186254501343,0,-3,-5,-7,-11,-9,-11,-10,1
36.481868267059326,1,1,1,0,0,1,4,4,1
36.49654817581177,0,1,-1,0,-1,-1,-4,0,1
36.49655294418335,-3,-3,-2,-4,-7,-3,-4,-3,1
36.50444674491882,-3,-4,-3,-3,1,1,-2,-7,1
36.504453897476196,-1,-1,-3,-8,-7,-1,-1,4,1
36.519564151763916,-1,1,2,2,4,1,0,0,1
36.5195689201355,1,1,0,5,3,0,-1,-2,1
36.52048683166504,-1,0,2,3,4,2,5,4,1
36.52048969268799,-2,-3,-6,-7,-6,-4,-6,-5,1
36.54256534576416,-1,-1,0,2,3,-1,1,0,1
36.54257082939148,0,0,2,2,2,1,1,-5,1
36.54384255409241,-3,0,-6,-6,-8,-6,-12,-4,1
36.54384684562683,0,-3,1,1,1,3,2,5,1
36.55615973472595,1,0,-1,0,-4,-6,-1,3,1
36.55616307258606,-1,0,-3,-3,-1,1,-1,0,1
36.56403374671936,1,4,5,9,3,2,6,4,1
36.564040422439575,-2,-2,-4,-7,-4,-5,-3,-3,1
36.58095026016235,-4,-4,-1,-4,-5,-1,-6,-6,1
36.58095407485962,-1,-1,0,2,2,2,1,-1,1
36.58224654197693,4,3,4,3,2,2,2,5,1
36.58224940299988,0,0,-1,4,7,2,1,-3,1
36.5939621925354,-1,-2,-2,-8,-6,-3,-4,-1,1
36.59396696090698,-3,-2,-3,-3,-3,-1,-2,-1,1
36.601882457733154,-1,-1,-3,-2,2,3,2,2,1
36.601887941360474,-2,1,5,9,5,0,-3,-9,1
36.61651802062988,-1,-2,-1,-4,-1,1,4,5,1
36.616523027420044,3,2,1,-1,1,-1,-7,-4,1
36.624720335006714,1,0,-1,0,0,-2,0,-1,1
36.62472724914551,-2,-1,0,0,-3,-1,1,1,1
36.63969826698303,-1,-1,0,5,3,3,0,-1,1
36.63970351219177,1,0,-4,-7,-4,-2,1,2,1
36.64068150520325,0,-3,-1,-1,-1,0,-1,0,1
36.64068579673767,-1,1,-1,-3,-3,-1,-2,0,1
36.65467047691345,0,-1,-3,-2,-2,-1,-1,-1,1
36.65469574928284,3,2,3,8,5,2,3,5,1
36.6616051197052,-3,-4,-5,-6,-6,-6,-10,-11,1
36.6616096496582,-2,-3,-5,-10,-8,-3,-2,2,1
36.67664194107056,-3,-2,0,3,1,0,-3,-4,1
36.676647663116455,0,-1,1,0,0,-1,1,-1,1
36.68406319618225,0,0,4,4,1,0,4,3,1
36.68406867980957,1,0,-2,3,3,0,3,0,1
36.69973564147949,-1,-1,-1,-2,-3,-1,1,-5,1
36.699740171432495,-4,-5,-3,1,0,-1,-3,-1,1
36.700669288635254,-3,-1,0,-1,-2,0,4,-8,1
36.70067238807678,2,-2,-3,-2,-3,-1,-4,1,1
36.71418213844299,0,1,2,3,4,1,0,0,1
36.71418786048889,0,-2,-3,-5,-5,-2,-3,-1,1
36.721654176712036,-3,-5,-4,-7,-3,0,-3,0,1
36.72165870666504,0,-1,-1,-2,-3,-3,-1,-1,1
36.736897468566895,-1,0,-1,-1,-1,-1,-5,-6,1
36.73690176010132,1,2,3,2,0,0,3,6,1
36.744157552719116,-2,-2,-3,-1,1,0,1,1,1
36.744162797927856,3,1,2,1,-1,2,1,4,1
36.76021647453308,-3,-5,-2,-3,-4,-1,-3,-4,1
36.76022434234619,1,2,2,5,4,1,3,1,1
36.761584997177124,-3,-3,-3,-11,-10,-6,-5,-1,1
36.76158952713013,-1,-3,0,-1,1,0,0,-3,1
36.78233599662781,-2,0,-1,0,2,0,0,0,1
36.78234100341797,0,-1,-1,-2,-6,-2,-2,-2,1
36.78332567214966,-1,-2,-1,2,4,3,0,1,1
36.783329486846924,-1,-1,0,-1,-2,-2,-2,1,1
36.796525955200195,0,-2,0,1,-1,-1,1,3,1
36.79653000831604,0,-1,-1,0,0,1,2,-1,1
36.80405783653259,-2,-1,-2,-2,0,-2,-4,0,1
36.80406308174133,-2,-4,-3,-8,-8,-2,-2,0,1
36.81970953941345,2,4,2,7,7,3,3,3,1
36.81971502304077,-3,-6,-5,-8,-8,-4,-6,3,1
36.82079219818115,1,1,1,0,-2,-1,0,0,1
36.82079553604126,-1,1,0,3,1,-2,-2,-2,1
36.833969831466675,2,1,1,1,3,2,4,3,1
36.83397459983826,1,0,-1,1,0,-1,-1,-4,1
36.841649293899536,2,1,-1,5,1,-1,-1,-2,1
36.84165358543396,-2,-2,-5,-9,-7,-4,-3,-2,1
36.856661319732666,-3,-3,-4,-3,-3,-2,0,-3,1
36.856667041778564,1,2,1,4,7,2,4,-5,1
36.872368574142456,2,0,0,1,-7,-2,2,2,1
36.872374296188354,-2,-1,-2,-2,2,1,-1,-1,1
36.880165576934814,-3,-2,-1,2,0,2,-1,-4,1
36.88017392158508,-1,-1,-1,-4,-3,-2,-1,-2,1
36.881685733795166,3,1,3,12,11,5,4,1,1
36.881690979003906,1,0,-3,-10,-9,-6,-4,-3,1
36.894306659698486,-1,-1,-1,-4,-2,-1,-1,1,1
36.894312143325806,0,1,1,1,2,1,1,3,1
36.90202879905701,0,0,0,3,4,2,1,-2,1
36.902034282684326,-2,1,-4,-3,-6,-2,-7,-1,1
36.91645526885986,0,0,-1,-4,-5,-3,-2,0,1
36.916460037231445,2,3,2,4,4,4,3,-1,1
36.923912048339844,-4,-5,-6,-16,-13,-10,-11,-5,1
36.92391657829285,2,-2,6,9,11,6,7,2,1
36.939767837524414,2,2,1,-1,-1,0,1,1,1
36.93977427482605,0,0,2,4,1,0,1,-2,1
36.94091439247131,1,-1,-3,-5,-2,1,-2,-2,1
36.94091868400574,-2,0,-1,2,3,0,-1,-1,1
36.95398688316345,0,0,0,1,-3,-2,0,0,1
36.953991651535034,6,4,2,6,2,0,2,5,1
36.961708784103394,-5,-6,-6,-9,-2,-2,-11,-4,1
36.96171283721924,-5,-4,-5,-8,-9,-6,-4,1,1
36.97690725326538,0,1,3,3,3,2,3,0,1
36.97691774368286,-2,-1,-1,0,1,1,0,2,1
36.983943700790405,-1,0,-2,-3,-1,0,3,2,1
36.98394775390625,5,4,6,9,9,4,3,1,1
36.99908399581909,-1,-3,-5,-7,-6,-5,-6,-6,1
36.999088287353516,-2,-1,-1,-2,-2,0,-1,-1,1
37.007102489471436,2,2,4,9,8,6,7,3,1
37.00710654258728,-5,-6,-8,-12,-7,-2,-5,-4,1
37.01402711868286,0,0,-2,1,0,-2,1,1,1
37.01403212547302,-4,-4,-4,-6,-5,-3,-7,-2,1
37.02158713340759,-1,1,1,5,2,1,3,-2,1
37.02159142494202,3,4,0,2,2,0,2,-2,1
37.03628396987915,0,-1,0,3,0,1,0,-1,1
37.03628849983215,-3,-2,-4,-6,-8,-4,-4,-3,1
37.04440665245056,-3,-4,-3,-8,-6,-4,-2,0,1
37.044413328170776,1,0,3,8,5,3,7,3,1
37.05906105041504,0,0,0,0,0,0,-1,1,1
37.059067249298096,-1,-2,-4,-5,-6,-4,-3,-2,1
37.06721472740173,2,1,-2,0,-2,2,1,2,1
37.067219734191895,1,1,2,5,1,3,1,-4,1
37.083911180496216,-8,-7,-7,-11,-10,-7,-10,-9,1
37.083916425704956,-2,-2,2,1,7,5,3,-1,1
37.08484387397766,3,3,3,5,3,-1,1,1,1
37.08484697341919,-4,-3,-8,-14,-10,-5,-4,2,1
37.09665322303772,-1,1,1,3,1,1,-1,-2,1
37.0966591835022,-1,-2,-1,-2,0,-1,-1,-2,1
37.104238986968994,4,3,3,4,5,0,1,0,1
37.10424470901489,-4,-5,-4,-7,-8,-6,-11,-4,1
37.11911177635193,2,1,0,-3,1,1,0,2,1
37.119118452072144,0,0,-1,-2,-2,-3,0,0,1
37.12726616859436,-1,-2,-1,1,2,0,1,-1,1
37.12727117538452,2,3,4,8,4,4,1,1,1
37.150489807128906,-2,-2,-3,-3,-1,0,1,1,1
37.15049457550049,-7,-6,-8,-13,-10,-6,-7,-6,1
37.15164518356323,-2,1,3,3,2,2,1,3,1
37.1516489982605,0,2,2,6,7,5,4,1,1
37.15640187263489,0,0,-2,-1,-5,-5,-6,-4,1
37.156405210494995,-2,-3,-3,-4,-4,-3,-5,-2,1
37.16400718688965,-2,-4,-2,-4,-3,-1,0,3,1
37.16401171684265,4,3,1,2,2,0,4,3,1
37.17925691604614,8,4,3,7,7,4,1,5,1
37.1792631149292,-1,-4,-5,-4,-4,-1,1,1,1
37.1872124671936,-3,-2,-2,-2,-6,-3,-8,-7,1
37.187216997146606,0,0,0,3,2,3,4,3,1
37.20217967033386,-4,-4,-1,1,2,2,0,-4,1
37.202184200286865,3,2,1,0,-4,-2,-1,3,1
37.20320510864258,0,3,1,0,3,-1,3,0,1
37.203209400177,-2,-2,0,1,-1,-3,-3,-4,1
37.2166965007782,-5,-2,-7,-11,-7,-2,-2,-6,1
37.21670126914978,-3,-5,1,2,3,2,1,1,1
37.22408413887024,1,2,1,2,0,1,3,1,1
37.224088191986084,2,3,3,7,4,0,1,0,1
37.23912215232849,2,1,0,1,-1,-2,2,1,1
37.23912763595581,0,1,-1,-4,-4,-1,-2,-1,1
37.2476167678833,-1,-1,-2,-3,-3,-2,-2,-1,1
37.24764132499695,-3,-1,1,2,4,1,4,-4,1
37.26263236999512,-2,-5,-2,-3,-6,-4,-3,-2,1
37.262638330459595,2,0,3,5,3,1,4,2,1
37.26347994804382,-3,-1,0,1,-1,-1,-1,1,1
37.263482332229614,3,2,3,7,5,2,2,1,1
37.27622985839844,-5,-7,-9,-10,-4,0,-5,-8,1
37.276233434677124,0,0,-1,-7,-6,-6,-4,-2,1
37.28373670578003,0,-2,-1,-2,0,-1,-2,-1,1
37.28373980522156,1,0,-1,-3,-1,-1,0,0,1
37.29935145378113,3,5,9,15,12,5,7,7,1
37.29935812950134,-3,-6,-5,0,3,3,0,-2,1
37.30723452568054,4,1,0,-8,-9,-3,-3,-1,1
37.3072395324707,-1,2,3,2,2,1,0,0,1
37.32244277000427,0,0,0,2,2,0,-1,1,1
37.32244825363159,-4,-1,-2,-2,-1,-2,-3,-1,1
37.323665142059326,-1,0,-4,0,0,1,-1,-2,1
37.32366895675659,-2,-1,-3,-5,-4,-2,-2,-3,1
37.338274002075195,4,3,4,4,5,1,3,4,1
37.33827829360962,-1,-1,-2,-3,-6,-2,-4,-3,1
37.344189405441284,-2,-1,1,3,1,-1,-3,1,1
37.344194173812866,-1,-1,-1,-3,-3,-3,-4,1,1
37.367889165878296,1,2,1,1,-2,-1,1,1,1
37.3678936958313,3,3,0,6,8,6,5,3,1
37.3688907623291,0,-2,-2,-2,-3,-2,-3,-4,1
37.36889386177063,-4,-5,-3,-1,-5,-3,-6,-2,1
37.38219952583313,-2,0,-1,-5,-3,-1,0,-1,1
37.382203817367554,2,2,4,8,6,6,5,1,1
37.38321495056152,-5,-3,-5,-10,-7,-4,-5,-7,1
37.38321781158447,-2,-4,-5,-9,-6,-1,-5,0,1
37.39648461341858,-3,-4,-2,-1,-1,-1,-1,-2,1
37.396488904953,2,1,2,2,3,-1,2,1,1
37.40430736541748,3,4,6,12,7,3,4,2,1
37.40431189537048,-4,-6,-7,-6,-2,-2,-4,-6,1
37.41868877410889,-4,-2,-3,-7,-10,-5,-6,1,1
37.41869282722473,1,5,4,6,4,4,4,5,1
37.4268524646759,-5,-6,-5,-3,-1,-1,-8,-7,1
37.42685556411743,1,0,0,1,1,0,0,1,1
37.44273281097412,-1,0,1,3,1,2,-1,-1,1
37.442739963531494,-2,-1,-2,-3,-3,-1,-2,-3,1
37.44381380081177,1,3,4,6,3,1,6,4,1
37.4438202381134,0,1,-3,-1,0,-3,-1,-2,1
37.45644187927246,-3,-4,-5,-5,-6,-4,-5,-5,1
37.45644545555115,0,-1,1,4,3,0,0,2,1
37.46426272392273,0,-1,-3,-7,-4,0,-2,-1,1
37.46426868438721,-6,-8,-10,-20,-15,-5,-8,-8,1
37.48105239868164,-1,2,1,0,0,0,3,0,1
37.48105716705322,0,1,2,4,0,-1,-2,-2,1
37.48845195770264,-2,-3,-2,1,-2,-2,-1,1,1
37.48845863342285,4,5,6,10,7,3,4,2,1
37.50224852561951,-3,-6,-5,-9,-5,-2,-6,-7,1
37.50225567817688,-1,-2,-5,-6,-7,-2,-1,-1,1
37.503899335861206,0,-1,0,0,2,3,3,1,1
37.50390410423279,7,5,6,12,5,3,4,5,1
37.516765117645264,-3,-4,-7,-7,-5,-3,-5,-4,1
37.516770362854004,-2,-1,0,-1,0,-2,-1,-2,1
37.524147033691406,2,1,-1,-2,-2,1,2,1,1
37.524152517318726,0,0,2,3,4,3,3,2,1
37.539129972457886,4,4,5,5,4,3,3,3,1
37.539135217666626,-2,-2,-2,-3,-6,-4,-4,-2,1
37.54730486869812,-3,-3,-4,-4,-2,-3,-2,0,1
37.54731035232544,0,0,4,4,5,-1,0,0,1
37.56279635429382,-2,-3,-6,-8,-6,-4,-4,-4,1
37.562803745269775,0,1,0,-3,-1,-2,-1,-2,1
37.56426930427551,1,0,3,2,1,1,-1,2,1
37.56427454948425,-1,0,-2,-1,0,-1,0,1,1
37.576595306396484,1,-3,1,-1,-1,-3,-3,-1,1
37.57660150527954,1,3,1,3,5,1,2,2,1
37.58403491973877,0,-1,-4,-2,-2,-1,-2,-2,1
37.58403992652893,-2,-1,-3,-5,-7,-7,-4,-2,1
37.600889444351196,0,2,2,10,9,6,6,5,1
37.600895166397095,-4,-9,-10,-17,-18,-10,-10,-2,1
37.60723114013672,-2,3,2,-2,2,2,2,-2,1
37.60723519325256,1,0,2,5,3,3,1,0,1
37.62252640724182,0,-2,-3,-3,-5,-8,-4,-4,1
37.62253379821777,-6,-6,-6,-10,-7,-4,-4,-3,1
37.62455677986145,-2,-2,-3,-2,-2,-2,-2,-1,1
37.62456440925598,-1,-1,2,1,3,2,1,1,1
37.64488983154297,4,5,3,6,3,2,2,2,1
37.64489698410034,2,1,0,4,1,1,-2,-8,1
37.64610266685486,-3,-4,-2,-4,-4,-4,-3,-4,1
37.64610934257507,-3,-2,-4,-5,-5,-1,-4,-3,1
37.65916323661804,1,1,3,4,5,3,1,5,1
37.65916967391968,0,-1,1,4,2,2,1,-1,1
37.66675114631653,0,1,0,0,-3,-2,-1,2,1
37.66675662994385,0,3,1,3,3,1,1,0,1
37.682212591171265,-2,-1,-1,-1,-2,0,2,0,1
37.682218074798584,4,3,1,7,10,7,6,2,1
37.683396100997925,2,1,1,1,-3,-3,-3,-1,1
37.68340039253235,-1,-1,-2,-1,-2,2,1,0,1
37.696669578552246,-3,-3,-6,-8,-10,-8,-6,-4,1
37.696674823760986,-2,2,2,4,2,0,-1,0,1
37.70423769950867,1,1,0,2,3,3,3,2,1
37.704243421554565,-1,1,-1,-2,-1,-1,-1,-2,1
37.71940350532532,-1,2,1,2,5,3,2,0,1
37.71941018104553,1,-1,-2,-4,-8,-4,-2,-3,1
37.72796869277954,-1,-2,1,-1,-1,-3,-3,0,1
37.72797465324402,0,-4,-5,-8,-4,-2,1,-1,1
37.74208211898804,2,1,5,6,5,3,4,3,1
37.74208664894104,-5,-5,-6,-11,-8,-4,-4,-4,1
37.74272060394287,-2,-1,0,0,0,1,0,2,1
37.74272274971008,2,2,1,3,3,0,1,0,1
37.75618100166321,1,0,0,0,-1,0,-2,-1,1
37.756184577941895,1,0,2,2,2,1,4,4,1
37.76372313499451,-2,-2,-4,-1,-2,-5,-6,-7,1
37.76372814178467,-6,-7,-5,-6,-7,-4,-7,-9,1
37.77907156944275,-1,0,-1,1,1,1,2,1,1
37.77907681465149,3,4,3,3,3,2,2,2,1
37.78711652755737,3,1,2,3,2,0,1,-1,1
37.78711986541748,-8,-10,-10,-17,-13,-7,-8,-8,1
37.80359125137329,-2,0,1,0,0,2,-1,1,1
37.80359673500061,1,0,-1,2,4,5,3,1,1
37.80464792251587,0,1,0,0,0,0,1,0,1
37.80465078353882,3,2,3,9,8,5,3,1,1
37.81647062301636,-2,-5,-5,-7,-7,-3,-7,-5,1
37.81647515296936,-5,-3,-7,-8,-8,-6,-4,-3,1
37.824036836624146,1,0,0,3,1,1,3,3,1
37.82404088973999,1,2,1,3,0,-1,0,1,1
37.83927845954895,0,0,0,0,0,-1,0,0,1
37.83928465843201,-4,-3,-2,-5,-4,-5,-6,-5,1
37.84772777557373,-2,-3,-1,-3,-1,1,0,-1,1
37.84773373603821,0,1,0,0,-3,-3,-3,-3,1
37.8623251914978,3,5,5,8,7,2,6,5,1
37.86233186721802,-5,-5,-5,-5,-8,-6,-8,-6,1
37.86338829994202,-3,-3,-4,-7,-5,-1,-1,3,1
37.86339259147644,3,3,5,5,3,4,6,6,1
37.87673044204712,0,-1,-3,0,5,2,0,-4,1
37.876737117767334,1,-1,1,2,-1,-1,2,-1,1
37.88443851470947,-2,-2,0,-2,-2,-1,-1,-1,1
37.884443521499634,-1,-1,-1,2,3,1,1,1,1
37.899718284606934,-1,-2,-2,-4,-5,-3,-3,-2,1
37.89972519874573,-1,1,2,4,5,5,2,0,1
37.90782427787781,3,0,-1,-3,-4,-5,-2,0,1
37.9078311920166,1,2,0,2,0,-1,0,-2,1
37.92200827598572,-1,-1,0,1,-1,-3,-1,0,1
37.922014236450195,3,2,2,5,7,1,3,1,1
37.922701835632324,-6,-7,-10,-11,-10,-5,-7,-7,1
37.92270588874817,0,0,1,0,1,0,1,-1,1
37.944387912750244,0,0,-1,-1,-2,1,0,-1,1
37.94439125061035,-3,-2,0,-1,-3,-2,-5,-1,1
37.94534087181091,4,3,2,6,6,4,5,2,1
37.94534492492676,-3,-3,-2,-4,-4,-2,-3,-2,1
37.95870018005371,0,0,-2,-1,-1,0,1,1,1
37.9587037563324,4,2,0,5,5,4,5,0,1
37.96674728393555,-2,0,-2,1,0,-1,-2,1,1
37.966750621795654,1,-3,-2,-6,-8,-1,0,-3,1
37.98190355300903,0,-1,2,4,3,0,1,-1,1
37.981910705566406,0,0,-2,0,0,0,0,0,1
37.997209787368774,-3,-3,-3,-3,-3,-1,-2,0,1
37.9972140789032,1,0,0,2,1,0,1,1,1
38.012829065322876,0,-1,-1,3,4,2,0,0,1
38.0128333568573,-4,-4,-5,-8,-8,-4,-6,-4,1
38.01377773284912,-1,1,1,-3,1,1,0,-1,1
38.01378083229065,1,1,-1,2,1,-2,-3,-1,1
38.01898384094238,-3,-3,-1,-5,-5,-4,-1,-2,1
38.01898789405823,0,-4,-3,-3,0,-1,1,-2,1
38.027130126953125,5,2,3,2,-1,1,3,-1,1
38.02713370323181,-7,-5,-7,-8,-4,-5,-8,-6,1
38.04196047782898,-1,-3,-1,-2,-3,-2,-4,-2,1
38.04196572303772,4,3,4,2,3,3,3,4,1
38.05012917518616,3,2,5,9,5,4,4,1,1
38.050134897232056,0,-4,-3,4,1,-1,-3,-2,1
38.064772844314575,-3,-3,-5,-7,-7,-4,-3,-4,1
38.064778089523315,-3,-2,0,0,0,0,0,1,1
38.0658164024353,2,5,4,7,7,2,4,2,1
38.06582069396973,-2,-3,-5,-11,-11,-5,-4,-2,1
38.079225301742554,1,-1,1,-2,-2,-3,-1,1,1
38.079230546951294,2,2,0,4,4,-1,0,2,1
38.087273359298706,-3,-5,-4,-4,-2,-1,-2,-5,1
38.08727788925171,1,1,2,1,0,1,0,0,1
38.101096630096436,-2,-2,-2,-1,-1,0,0,-3,1
38.101099729537964,3,2,1,-1,-4,-3,0,2,1
38.110084533691406,1,-1,-1,1,3,1,0,1,1
38.110090255737305,-2,-3,-1,-2,-2,0,-4,-5,1
38.12524104118347,-2,-3,-3,-2,-5,-3,-1,-1,1
38.125245571136475,1,4,5,5,6,5,4,3,1
38.126529932022095,-3,-3,-3,0,-5,-6,-5,-5,1
38.12653422355652,0,1,0,-3,-1,-1,3,5,1
38.138458013534546,1,0,1,0,-1,-1,-2,-1,1
38.138460874557495,2,0,1,-1,0,0,1,-1,1
38.15473127365112,-1,-4,-4,-8,-5,-4,-4,-6,1
38.154735803604126,0,0,0,0,1,-3,0,-2,1
38.16234874725342,1,2,1,2,0,-1,2,2,1
38.16235685348511,-3,-2,-3,-3,-2,-1,-2,-3,1
38.17069697380066,2,2,2,3,5,6,2,3,1
38.1707022190094,-2,-3,-2,-1,-4,-4,-5,-2,1
38.18463969230652,-1,-1,-2,-5,-3,1,0,-1,1
38.18464422225952,1,-1,0,3,0,0,1,-2,1
38.1856255531311,0,1,1,2,0,-1,1,-2,1
38.18562865257263,2,1,0,2,3,3,5,2,1
38.201093912124634,0,-2,-2,1,-2,0,-2,-2,1
38.20109748840332,-3,-3,-2,-5,-3,0,-2,0,1
38.21477937698364,-2,-1,0,2,3,1,-1,1,1
38.214784145355225,2,1,0,-1,1,1,4,2,1
38.22151589393616,2,2,1,2,3,3,4,-1,1
38.221519947052,-4,-3,-5,-5,-9,-6,-6,-3,1
38.22972798347473,-2,0,-2,-2,-1,-2,-1,1,1
38.229732513427734,2,2,5,5,3,1,2,0,1
38.24556541442871,1,0,-1,-2,1,-1,1,2,1
38.24557065963745,-2,-4,-2,-2,-4,-1,-2,-8,1
38.246593713760376,0,0,1,-1,-1,-1,0,3,1
38.24659824371338,-1,1,-1,0,-1,0,0,1,1
38.259204626083374,-1,-2,-1,-3,-2,-3,-3,-5,1
38.259209394454956,2,1,3,6,4,2,2,1,1
38.267624616622925,-3,-5,-6,-5,-5,-3,-5,-5,1
38.2676305770874,1,3,4,3,1,2,4,2,1
38.28217124938965,-7,-9,-11,-15,-11,-5,-9,-9,1
38.282177448272705,0,0,-1,1,0,-2,0,6,1
38.289698123931885,-2,-1,-2,0,2,-2,-4,-8,1
38.289703130722046,0,-3,-2,-4,-4,-2,-3,-1,1
38.30530500411987,4,2,2,8,6,6,6,1,1
38.305310010910034,-2,-4,-5,-8,-8,-6,-5,-6,1
38.30630826950073,2,1,1,1,2,1,4,2,1
38.306312084198,-1,1,-2,0,2,-2,0,-1,1
38.32081460952759,-1,-1,1,2,1,1,0,-2,1
38.32081866264343,0,0,-2,-1,1,1,-1,0,1
38.32730841636658,4,3,3,4,3,2,3,4,1
38.327314138412476,-1,-2,-3,-1,1,2,-2,-6,1
38.3415801525116,-4,-7,-9,-15,-11,-9,-10,1,1
38.34158492088318,0,0,2,2,2,0,1,3,1
38.350236892700195,-1,-2,-2,-2,-3,1,-1,0,1
38.35024285316467,5,3,5,9,7,5,5,3,1
38.36482095718384,-1,1,-1,-1,-4,-5,-4,-3,1
38.36482763290405,-2,-2,-2,0,2,0,-2,-3,1
38.36595320701599,0,0,-2,-3,-4,-1,-1,0,1
38.36595702171326,2,-2,-1,1,0,1,2,1,1
38.380215883255005,-3,-1,-1,3,0,0,-2,-1,1
38.38021898269653,-2,-2,-3,-7,-5,-5,-3,-3,1
38.38623070716858,2,1,1,2,0,1,2,0,1
38.386234283447266,0,1,1,7,8,3,0,-1,1
38.4019570350647,-2,-4,-5,-10,-12,-8,-7,-1,1
38.40196084976196,-2,2,1,3,0,2,0,0,1
38.41762638092041,-3,-3,-4,-8,-5,-3,-2,-2,1
38.41763186454773,1,1,1,3,4,2,5,-1,1
38.42499351501465,-2,-2,0,-2,-1,-1,1,-1,1
38.42499852180481,3,2,2,2,2,1,3,0,1
38.426230669021606,-5,-3,-5,-3,-6,-5,-5,-6,1
38.42623448371887,-5,-2,-3,-9,-10,-5,-4,0,1
38.439030170440674,5,5,6,14,14,8,7,6,1
38.4390344619751,-5,-5,-7,-14,-13,-9,-9,-5,1
38.44655895233154,-1,-1,0,-3,-2,-1,-6,-4,1
38.446563720703125,-1,-1,-4,-2,-1,1,-1,1,1
38.46160531044006,0,2,1,4,3,1,1,1,1
38.461609840393066,2,0,1,5,4,2,5,2,1
38.47735404968262,-2,-1,0,-3,-2,-1,-1,-2,1
38.47736048698425,-1,-3,-2,-7,-6,-4,-2,2,1
38.484976053237915,-1,-1,1,0,-2,0,-2,-6,1
38.484981536865234,3,2,2,4,3,5,3,3,1
38.48596549034119,1,1,1,4,1,-1,1,0,1
38.485968589782715,-7,-7,-8,-11,-10,-8,-8,-8,1
38.49911332130432,3,3,5,6,8,0,5,6,1
38.499120235443115,0,0,-2,3,4,2,1,-1,1
38.506635665893555,-6,-5,-6,-8,-8,-4,-7,0,1
38.506640911102295,3,3,6,9,7,5,5,4,1
38.523772954940796,-2,0,-1,1,2,0,-2,0,1
38.52377986907959,-4,-2,-3,-7,-5,-2,-2,-3,1
38.530192613601685,1,1,-1,0,2,3,5,1,1
38.530197858810425,2,1,0,4,3,0,0,0,1
38.5447473526001,-3,-2,-6,-11,-11,-3,-3,-5,1
38.54475235939026,-1,-3,2,2,-2,-4,-1,0,1
38.5457022190094,-3,-2,-1,-2,2,2,1,-1,1
38.54570722579956,0,1,0,-4,-2,-4,-4,1,1
38.56735110282898,5,2,4,10,11,7,7,4,1
38.56735682487488,-1,-3,-6,-4,-3,-2,-3,-5,1
38.56850862503052,-1,-3,-3,-7,-9,-6,-2,-1,1
38.56851243972778,0,1,1,3,1,1,0,-2,1
38.581690311431885,0,-2,-1,0,-1,2,1,-4,1
38.581695318222046,-2,-1,0,1,2,2,0,-1,1
38.58973979949951,2,1,4,5,0,-3,-1,3,1
38.589744091033936,-3,-4,-6,-8,-5,-2,-4,-4,1
38.60430955886841,0,-2,2,0,1,2,2,1,1
38.60431241989136,-1,0,0,0,0,-1,-1,1,1
38.60521388053894,3,1,0,2,2,3,2,2,1
38.60521721839905,-1,1,3,5,2,-1,1,0,1
38.61873173713684,-2,-5,-7,-10,-10,-6,-8,-6,1
38.61873459815979,-2,-1,1,0,1,1,0,-2,1
38.62658739089966,-1,0,-1,2,3,2,3,0,1
38.6265926361084,2,1,1,2,0,1,-1,0,1
38.64179039001465,-3,-4,-3,-3,-3,-2,-4,-4,1
38.641796350479126,-5,-6,-8,-19,-15,-8,-11,-4,1
38.65005826950073,0,1,1,4,1,0,-2,0,1
38.650062799453735,0,-1,-1,-2,2,1,1,-2,1
38.66492199897766,2,3,1,2,-1,-3,1,2,1
38.66492748260498,2,1,2,6,4,1,2,2,1
38.66598606109619,-2,-3,-5,-6,-5,-4,-6,-4,1
38.66598987579346,-3,-2,-2,-2,-2,-1,-2,-3,1
38.67947816848755,2,0,0,2,5,3,4,2,1
38.67948341369629,4,3,4,12,8,3,5,2,1
38.68656349182129,-8,-9,-13,-26,-22,-11,-15,-9,1
38.68656802177429,-2,1,0,0,-2,0,3,0,1
38.71242928504944,1,0,0,4,3,2,1,1,1
38.71243691444397,3,2,4,6,7,6,4,4,1
38.714131116867065,2,3,4,5,3,2,3,1,1
38.714136838912964,-3,-3,-2,-4,-6,-5,-5,-4,1
38.72484016418457,-2,0,1,0,0,1,1,-2,1
38.72484517097473,-2,-2,-5,-5,-4,-2,-3,-3,1
38.72588133811951,2,2,6,9,8,4,2,1,1
38.725884675979614,-3,-2,-3,-6,-6,-1,-1,-1,1
38.73902130126953,-2,-2,1,1,1,0,-4,-3,1
38.739025354385376,1,0,1,3,2,1,5,3,1
38.75478672981262,2,2,2,7,7,4,5,0,1
38.754791498184204,0,-6,-5,-8,-7,-5,-5,-2,1
38.76171255111694,-1,1,1,1,-1,-2,0,1,1
38.761717796325684,1,-1,-1,2,4,2,-1,1,1
38.76988124847412,-5,-4,-8,-12,-10,-6,-8,-4,1
38.76988673210144,0,2,1,4,4,3,5,1,1
38.78472852706909,1,1,0,1,-1,2,1,0,1
38.784733057022095,1,0,-1,0,-1,1,0,-3,1
38.78588509559631,1,1,1,4,3,1,1,2,1
38.78588938713074,0,1,1,3,2,0,0,-2,1
38.79909372329712,-3,-3,-7,-7,-6,-2,-3,-2,1
38.79909801483154,-1,1,1,-2,0,0,1,0,1
38.80676245689392,3,2,2,8,5,4,3,2,1
38.806766986846924,-6,-6,-5,-4,-6,-5,-5,-4,1
38.821778535842896,-4,-3,-2,-7,-7,-7,-7,-4,1
38.82178354263306,-2,-2,0,0,1,-2,0,-1,1
38.82989716529846,0,-1,0,-4,-1,-1,-1,-1,1
38.8299036026001,2,3,4,4,3,0,4,4,1
38.84472107887268,2,1,1,4,3,2,4,0,1
38.84472680091858,-4,-4,-6,-7,-6,-4,-5,-4,1
38.84576773643494,0,1,0,0,0,0,1,1,1
38.845771074295044,0,0,0,0,3,3,0,-1,1
38.85911679267883,2,2,-1,-5,-3,-3,1,-2,1
38.859121561050415,-1,-1,-1,-7,-9,-6,-6,-4,1
38.86656045913696,-3,-3,-1,2,6,5,2,1,1
38.86656475067139,-1,-2,-2,-4,-4,-2,-3,-1,1
38.88168406486511,-1,1,-2,0,0,0,1,4,1
38.881688833236694,2,3,3,5,5,3,2,1,1
38.88981032371521,2,2,2,4,0,2,4,1,1
38.889814615249634,-2,-4,-5,-5,-7,-3,-4,-2,1
38.904046058654785,0,-1,0,1,-1,0,1,1,1
38.90405011177063,2,0,1,4,1,-1,-1,1,1
38.9122257232666,-1,-1,-2,-4,-3,0,-2,-3,1
38.912230253219604,-4,-3,-3,-2,-3,0,-5,-3,1
38.91909384727478,-1,1,1,2,6,2,2,4,1
38.91909861564636,-4,-4,-5,-6,-8,-6,-8,-6,1
38.92658853530884,-3,-3,-5,-6,-7,-7,-6,0,1
38.92659258842468,2,3,4,7,8,2,7,0,1
38.941298961639404,1,-3,0,0,-3,-1,-2,-2,1
38.94130229949951,-1,0,1,2,1,2,3,0,1
38.94938325881958,2,2,2,2,1,-1,2,-2,1
38.94938635826111,2,0,0,-3,-2,-1,0,-2,1
38.96413707733154,-5,-6,-3,-5,-4,-1,-4,-2,1
38.96414279937744,-2,-4,-6,-3,0,-1,-1,-3,1
38.97226357460022,-3,-1,-1,-2,-4,-1,0,-1,1
38.97226881980896,2,1,1,3,3,0,1,3,1
38.98848509788513,4,6,5,10,9,3,1,-4,1
38.98849129676819,-6,-4,-6,-8,-10,-9,-8,-4,1
38.989474058151245,-2,-1,-1,-5,-3,-4,0,0,1
38.98947763442993,-2,-1,0,1,1,4,2,1,1
39.00190782546997,2,3,-1,0,0,1,2,1,1
39.00191283226013,3,2,1,3,2,2,3,1,1
39.009846448898315,2,0,1,3,2,-1,2,-2,1
39.00985074043274,-4,-5,-6,-10,-10,-6,-7,-5,1
39.02420353889465,-4,-4,-3,-8,-8,-4,-6,-3,1
39.024208545684814,0,0,0,1,3,2,2,-1,1
39.032273054122925,0,-2,-2,-4,-2,-1,-1,2,1
39.03227782249451,2,1,3,6,2,-1,-1,0,1
39.05565166473389,-1,-3,-2,-1,0,1,1,0,1
39.055657386779785,1,-1,-1,-2,2,3,1,2,1
39.0570170879364,1,0,1,2,2,1,1,-2,1
39.05702090263367,-1,-1,-1,0,-1,-1,-2,-1,1
39.062079429626465,0,0,-1,0,-1,-2,-2,-3,1
39.062084674835205,2,4,4,8,5,1,4,2,1
39.06991243362427,-3,-3,-6,-9,-8,-3,-4,-6,1
39.06991744041443,-3,-5,-5,-10,-6,-3,-3,-1,1
39.084179401397705,-7,-5,-6,-7,-9,-7,-8,-5,1
39.08418560028076,1,0,3,2,3,2,1,3,1
39.09238362312317,3,3,4,9,9,4,5,3,1
39.092389822006226,1,1,-3,1,-4,-3,-2,-4,1
39.10775899887085,-5,-3,-4,-5,-4,0,-2,-4,1
39.1077675819397,1,0,2,1,3,3,2,-1,1
39.109187841415405,-1,-1,0,2,-2,0,-1,-1,1
39.10919237136841,2,3,4,6,5,4,5,3,1
39.13062834739685,1,-1,0,0,2,0,-2,0,1
39.13063383102417,-4,-1,-3,-7,-6,-3,-4,0,1
39.13174033164978,0,2,3,6,4,5,3,3,1
39.13174486160278,-2,-2,-2,-2,-1,2,-1,-5,1
39.14405846595764,3,1,3,9,3,0,0,2,1
39.1440634727478,-1,-1,-3,-4,-5,-4,-5,-1,1
39.152361154556274,-1,-3,-3,-5,-5,-4,-6,-3,1
39.152366161346436,-1,1,1,-1,2,2,2,0,1
39.167330265045166,5,5,5,8,8,5,8,4,1
39.16733479499817,-6,-7,-10,-9,-13,-7,-6,-10,1
39.168334007263184,-1,-1,1,-1,0,1,1,3,1
39.16833782196045,1,1,1,2,1,1,0,-1,1
39.181861877441406,0,0,1,0,2,1,1,0,1
39.18186688423157,4,2,2,3,0,2,5,-1,1
39.18993830680847,-2,-3,-4,-4,-6,-6,-7,-3,1
39.18994402885437,-2,-1,-2,-4,0,-2,-1,0,1
39.20511341094971,0,0,4,5,6,2,1,2,1
39.20512127876282,-1,1,-1,-1,-2,0,0,2,1
39.212138652801514,1,-1,2,3,1,0,-1,-1,1
39.21214199066162,1,1,-1,0,-1,-1,1,2,1
39.22723627090454,-5,-7,-9,-12,-12,-4,-5,-9,1
39.2272412776947,-1,0,1,-1,0,-1,0,1,1
39.22818207740784,2,2,2,4,6,4,5,4,1
39.228185415267944,-2,-2,0,-1,-1,-1,-4,-1,1
39.24167513847351,2,2,0,5,1,3,1,1,1
39.24168109893799,-3,-2,-1,-5,-3,-3,-4,-2,1
39.24971151351929,-1,1,0,1,-2,-2,0,1,1
39.24971556663513,6,3,5,11,11,4,6,3,1
39.26406931877136,-6,-8,-12,-23,-17,-10,-12,-7,1
39.26407289505005,1,-1,-1,4,1,2,1,0,1
39.272395849227905,0,0,-1,3,1,1,1,-2,1
39.27240061759949,-2,-3,-6,-8,-6,-5,-5,-5,1
39.28722858428955,1,0,-1,0,4,2,4,0,1
39.287232637405396,0,3,4,9,4,1,0,2,1
39.28815817832947,-5,-6,-9,-18,-16,-7,-7,-8,1
39.28816103935242,-2,-2,-1,1,0,-1,0,1,1
39.310508489608765,3,2,2,4,5,2,5,3,1
39.31051278114319,3,1,3,5,7,4,1,-1,1
39.31149983406067,0,-1,-4,-2,-4,-3,-4,-4,1
39.3115029335022,-1,-1,-3,-3,-2,3,0,-1,1
39.32449674606323,-3,-2,0,3,0,-3,-2,-2,1
39.32450246810913,1,1,2,-2,1,2,1,3,1
39.33198070526123,1,0,2,3,8,0,-1,-1,1
39.33198356628418,0,-1,-3,-5,-7,-6,-3,-2,1
39.34792971611023,2,2,2,2,1,2,3,4,1
39.34793210029602,-1,0,-2,2,-1,0,2,-1,1
39.34876298904419,-6,-5,-5,-10,-9,-5,-7,-4,1
39.34876465797424,1,1,3,2,1,0,2,2,1
39.36178541183472,2,-2,-1,2,2,0,0,-2,1
39.36179041862488,1,-1,0,-1,-1,-1,-1,0,1
39.369893074035645,0,0,2,7,5,1,1,0,1
39.369898319244385,-3,-4,-4,-2,-1,-1,-1,-2,1
39.384669065475464,-4,-4,-7,-11,-13,-8,-8,-3,1
39.38467335700989,0,0,0,-1,2,1,1,0,1
39.39233875274658,5,5,7,10,9,5,6,3,1
39.392343282699585,-2,-5,-5,-6,-4,0,-4,-7,1
39.40723514556885,-1,-1,-1,-1,0,0,0,3,1
39.40723919868469,2,1,1,3,4,2,4,-1,1
39.40822649002075,-3,-3,-3,-3,0,2,0,-1,1
39.4082293510437,0,0,1,-2,-4,-6,-5,2,1
39.42167568206787,0,0,1,4,4,2,0,-2,1
39.421680212020874,-3,-3,-5,-4,-6,-4,-4,-3,1
39.42993426322937,4,1,4,6,7,2,3,3,1
39.42994236946106,-6,-7,-8,-15,-14,-9,-10,-4,1
39.44399642944336,3,3,2,2,2,-1,3,0,1
39.444000244140625,2,0,1,2,1,2,1,2,1
39.45243263244629,-3,-3,-6,-6,-5,-4,-3,-3,1
39.452436685562134,1,1,2,4,3,3,2,1,1
39.46733832359314,-1,-2,-1,-1,-5,-2,-1,-1,1
39.46734356880188,-1,-2,0,-3,2,-2,-1,0,1
39.46840858459473,-2,-1,-3,-2,-4,-2,-2,-1,1
39.4684112071991,1,-1,1,1,3,1,1,-2,1
39.48216795921326,1,3,4,5,4,4,3,2,1
39.48217248916626,-3,-3,-4,-5,-3,-4,-4,-5,1
39.490192890167236,0,-3,-1,-4,-4,-1,0,1,1
39.4901967048645,0,2,1,3,3,1,0,1,1
39.50414228439331,2,3,5,7,3,1,2,0,1
39.50414681434631,-1,-1,-3,3,2,1,4,-1,1
39.513129234313965,-3,-4,-7,-14,-12,-8,-9,-3,1
39.51313281059265,-2,-1,0,0,-1,1,1,0,1
39.52782988548279,-1,1,-1,2,3,1,-1,-1,1
39.52783489227295,0,0,-1,-1,0,3,1,0,1
39.52933979034424,-1,-2,0,2,-1,0,0,-3,1
39.52934527397156,3,1,5,12,8,2,5,6,1
39.54102063179016,-10,-9,-14,-21,-10,-7,-11,-13,1
39.54102277755737,-2,-1,-2,-10,-10,-5,-4,2,1
39.55018711090088,2,3,4,7,4,3,0,0,1
39.55019211769104,1,3,2,0,-1,-1,1,-1,1
39.56391882896423,0,0,2,11,8,1,3,1,1
39.56392288208008,-3,-4,-5,-10,-7,-4,-5,-1,1
39.57225227355957,-1,-1,-1,-3,0,1,0,-3,1
39.572256088256836,3,2,1,4,3,3,4,3,1
39.58771800994873,-2,-5,-5,-7,-10,-8,-7,-7,1
39.587722063064575,-1,0,-3,0,-2,-1,0,-1,1
39.588706493377686,-2,-2,0,1,-1,1,1,1,1
39.588709354400635,-2,0,-1,-3,2,1,2,-1,1
39.60171437263489,3,4,6,7,6,4,5,6,1
39.60171818733215,-6,-7,-9,-11,-13,-8,-11,-6,1
39.60973286628723,0,0,1,2,1,0,0,1,1
39.6097354888916,-2,-1,-1,0,0,0,0,-3,1
39.62404942512512,3,3,2,-1,0,2,2,2,1
39.62405347824097,-5,-5,-5,-7,-4,-4,-6,-5,1
39.63279891014099,-2,-2,-3,-2,-3,-3,-2,-1,1
39.63280510902405,-2,-2,0,-2,-2,-1,-2,-3,1
39.64725923538208,3,4,5,6,4,2,3,5,1
39.64726400375366,3,3,2,9,11,7,9,0,1
39.648255825042725,-3,-3,-6,-10,-8,-7,-5,-6,1
39.648258686065674,-1,-2,0,-2,-3,-2,-2,2,1
39.66181659698486,2,2,1,2,3,4,0,0,1
39.661821603775024,-3,-3,-4,-5,-8,-5,-7,-5,1
39.67066979408264,-1,-1,-1,2,4,4,4,1,1
39.670674562454224,-1,-1,-1,1,-1,0,1,1,1
39.6835777759552,-2,-3,-5,-6,-4,-2,-2,-4,1
39.68358063697815,3,4,5,5,5,3,3,-1,1
39.69238233566284,-1,-1,-3,-1,-3,-3,-3,-3,1
39.69238638877869,-1,-1,0,-4,-1,-3,-3,-2,1
39.70802569389343,0,-2,-1,-4,0,1,1,1,1
39.708030462265015,3,1,2,1,2,3,3,2,1
39.70916271209717,1,-1,-1,-2,2,2,1,-1,1
39.709165811538696,0,0,-4,0,-5,-1,-3,-2,1
39.72176003456116,-3,-3,-3,-8,-8,-4,-5,-1,1
39.721764087677,-1,1,0,1,2,-2,-2,1,1
39.73043990135193,5,5,5,7,6,3,6,4,1
39.73044562339783,-2,-3,-4,-2,0,-3,-5,-5,1
39.752997398376465,-3,-4,-4,-3,-4,-1,-1,0,1
39.75300168991089,-1,-2,-3,-4,-4,-3,-3,1,1
39.75438094139099,5,3,4,4,4,0,2,3,1
39.75438642501831,2,2,3,4,2,0,1,0,1
39.76675629615784,-6,-6,-7,-11,-8,-5,-7,-6,1
39.7667601108551,0,1,3,3,2,2,1,2,1
39.77589988708496,2,-1,2,-1,0,0,0,0,1
39.77590370178223,-1,-1,-1,-2,-1,-4,-1,0,1
39.781864643096924,2,0,4,5,2,-1,0,2,1
39.78186917304993,-1,-1,-1,-1,-2,-1,0,0,1
39.7916214466095,-3,-3,-5,-8,-8,-3,-6,-1,1
39.79162669181824,-1,-1,0,4,4,1,3,-1,1
39.803701877593994,0,0,0,1,1,1,2,-3,1
39.80370497703552,3,0,2,4,4,1,3,0,1
39.81263327598572,-3,-1,-4,-6,-2,0,1,-1,1
39.81263613700867,-3,-4,-3,-3,-1,0,-1,-2,1
39.826172828674316,0,0,-1,-3,-4,-4,-3,0,1
39.82617545127869,0,0,1,2,2,-2,-1,-1,1
39.835163593292236,-4,-4,-3,-6,-7,-4,-5,-4,1
39.835166692733765,-1,0,2,1,3,1,0,-2,1
39.84169554710388,-1,-1,-2,-1,0,-1,0,-1,1
39.841699838638306,1,1,3,7,4,2,5,3,1
39.85187125205994,-5,-5,-4,-7,-7,-5,-6,-7,1
39.851876974105835,1,1,1,0,1,0,0,0,1
39.865185499191284,1,-1,1,4,2,-2,1,1,1
39.86519193649292,-5,-4,-4,-9,-7,-3,-5,-4,1
39.87396764755249,0,0,0,3,4,0,1,4,1
39.87397313117981,0,-2,-4,-3,-3,0,-3,-2,1
39.886232137680054,5,6,7,11,7,3,3,0,1
39.886234760284424,-7,-10,-13,-22,-25,-15,-16,-10,1
39.89518451690674,-1,1,2,4,6,3,4,0,1
39.89518737792969,-4,-4,-4,-7,-4,-1,-2,1,1
39.91004729270935,2,1,0,2,4,3,3,4,1
39.91004967689514,3,4,3,7,6,4,4,0,1
39.91173553466797,-1,-1,1,2,0,-1,0,-1,1
39.9117386341095,-3,-5,-8,-11,-11,-5,-8,-2,1
39.92406439781189,-3,-2,-2,-1,-2,1,0,-1,1
39.92406725883484,3,5,4,7,7,6,5,1,1
39.9408483505249,-3,-2,-1,3,-6,-6,-7,-4,1
39.94085240364075,-1,0,1,-2,0,0,-1,3,1
39.946972131729126,-2,-3,-2,2,2,0,0,-2,1
39.94697833061218,-2,-2,-2,-6,-6,-3,-4,-4,1
39.955918312072754,2,3,2,2,1,2,4,0,1
39.95592284202576,2,1,0,1,2,1,1,-3,1
39.97046160697937,0,0,-2,-1,-2,-1,-1,-2,1
39.970465898513794,4,4,6,13,11,2,6,4,1
39.972675800323486,-4,-6,-8,-17,-12,-6,-9,-5,1
39.97267985343933,-2,-1,0,-1,-4,0,-2,0,1
39.984243869781494,-3,0,-1,-1,1,2,0,-3,1
39.98424816131592,2,-1,3,6,6,4,4,5,1
39.99369025230408,-1,-1,-3,-2,-1,-1,-3,-1,1
39.993693113327026,2,2,-1,-1,-1,-1,2,0,1
40.00656223297119,3,-1,2,3,1,0,3,2,1
40.00656604766846,-6,-6,-8,-15,-12,-5,-11,-9,1
40.0164680480957,2,0,1,3,5,2,4,2,1
40.01647400856018,2,1,1,4,3,0,4,2,1
40.03071355819702,-3,-2,-2,-3,-1,-2,-1,0,1
40.0307183265686,0,0,2,3,3,1,2,1,1
40.03350472450256,-1,0,-1,-1,-5,-3,-3,1,1
40.03350901603699,-3,-2,-5,-3,-4,-6,-7,-5,1
40.04398512840271,-3,-3,-3,-3,-2,0,-3,-2,1
40.0439887046814,1,0,1,0,0,1,1,3,1
40.05331802368164,3,2,3,4,6,4,4,0,1
40.05332112312317,5,5,8,15,9,2,4,3,1
40.06649351119995,-8,-8,-13,-21,-19,-11,-15,-5,1
40.06649661064148,0,-2,-3,-3,0,2,3,0,1
40.08161902427673,2,2,4,3,3,2,4,1,1
40.08162260055542,0,0,-2,1,3,0,1,0,1
40.09036302566528,1,0,1,2,0,-2,0,0,1
40.09036660194397,-3,-2,-3,3,1,-1,-1,-1,1
40.092551946640015,-1,-1,-3,-7,-6,-4,-4,0,1
40.09255599975586,-1,-4,-3,-1,1,2,0,-3,1
40.1042160987854,-2,-4,-4,-7,-4,-4,-3,-5,1
40.10422110557556,3,4,3,3,4,1,3,5,1
40.114418029785156,2,2,3,9,7,1,1,-4,1
40.11442303657532,-3,-5,-4,-9,-5,-1,-4,-4,1
40.12662649154663,-2,1,1,2,1,2,2,2,1
40.1266303062439,-1,-1,-1,-1,-3,-2,-5,-3,1
40.146188735961914,0,1,0,2,3,3,6,5,1
40.146196126937866,0,1,0,0,-2,0,0,-6,1
40.1510214805603,-2,-1,0,-1,-3,-1,-3,-1,1
40.151026487350464,-2,-2,-2,-5,-6,-4,-4,-1,1
40.15280103683472,-2,-2,-1,-4,-1,0,-1,-2,1
40.152804374694824,1,0,1,4,0,2,4,2,1
40.16430377960205,0,2,0,1,1,1,2,3,1
40.16431021690369,-2,-1,-1,-2,-3,0,-3,-2,1
40.173943281173706,-1,-3,-2,-3,-5,-3,-3,-3,1
40.17394733428955,-1,-3,-2,-4,-2,-4,-5,-1,1
40.18668055534363,0,0,-2,-3,-4,-1,0,-3,1
40.18668508529663,1,0,2,2,3,1,0,2,1
40.19693183898926,-1,1,0,2,5,1,1,-1,1
40.19693875312805,1,3,1,4,3,0,0,3,1
40.21055245399475,-3,-3,-2,-7,-9,-7,-7,-4,1
40.210556983947754,0,-1,-3,-1,0,0,-1,-2,1
40.213016748428345,-2,-3,-4,0,-1,0,0,2,1
40.21302127838135,1,-1,-2,-5,-6,-2,-3,-4,1
40.224202156066895,6,3,6,9,9,2,5,4,1
40.22420644760132,-6,-8,-11,-16,-13,-6,-6,-6,1
40.23386836051941,-4,-4,-4,-8,-9,-5,-6,-4,1
40.23387336730957,0,1,1,-1,1,1,2,1,1
40.246540784835815,1,0,1,2,4,3,2,1,1
40.24654459953308,8,5,8,14,11,6,8,4,1
40.25678992271423,-5,-6,-9,-10,-11,-4,-5,-5,1
40.25679540634155,-4,-1,-3,-4,-3,-2,1,2,1
40.27045178413391,0,1,0,2,2,1,5,2,1
40.270456314086914,-1,1,1,1,4,3,0,-4,1
40.27276253700256,4,3,4,7,9,5,4,1,1
40.272767066955566,-5,-6,-5,-7,-12,-10,-11,-6,1
40.284064531326294,-2,-2,-2,-4,0,1,0,1,1
40.28406858444214,-2,-2,0,3,5,3,4,0,1
40.2937798500061,1,3,-1,-3,0,-2,-1,-1,1
40.29378604888916,0,-2,-3,-4,-4,-3,-2,-4,1
40.30677938461304,1,0,1,5,5,2,1,3,1
40.30678367614746,-2,-2,-3,-1,-5,-4,-5,0,1
40.316486120224,-1,0,-1,1,0,0,2,2,1
40.316490650177,0,1,0,-1,0,1,3,-1,1
40.33049154281616,-1,-2,0,-3,-3,-1,-2,-4,1
40.330496072769165,1,1,1,1,2,-1,2,2,1
40.332817792892456,-2,-2,1,4,2,0,0,2,1
40.332823514938354,-1,0,-2,1,4,3,0,0,1
40.34433960914612,2,1,2,1,1,2,4,0,1
40.344345808029175,1,-2,0,2,0,-1,-2,-2,1
40.3538076877594,-2,-3,-3,-6,-3,-2,-2,-2,1
40.3538122177124,0,0,2,1,1,2,2,1,1
40.36698007583618,3,0,2,5,8,3,4,0,1
40.3669855594635,-4,-2,-5,-11,-11,-5,-6,-1,1
40.37743592262268,1,-1,1,4,2,0,-1,0,1
40.37744212150574,0,-1,0,0,1,-1,0,-1,1
40.39055919647217,2,2,0,2,2,2,1,0,1
40.39056348800659,3,3,0,1,2,1,3,3,1
40.393527030944824,-3,-3,-3,-2,-3,-3,-4,-3,1
40.39353108406067,-4,-2,-3,-4,-1,0,0,0,1
40.40415334701538,-2,-3,-3,-3,-2,-2,-4,-2,1
40.404157638549805,-1,-1,-2,-5,-4,-2,-1,-1,1
40.419137477874756,1,1,1,1,3,1,1,0,1
40.41914200782776,5,3,4,8,8,4,6,1,1
40.42666411399841,-7,-6,-11,-16,-15,-9,-13,-6,1
40.426668882369995,1,1,4,2,0,-2,2,1,1
40.43595552444458,0,-2,-1,-1,-3,-2,-1,-1,1
40.435959815979004,1,0,2,3,0,3,3,2,1
40.45045518875122,3,3,3,8,2,0,2,-3,1
40.450459003448486,-5,-3,-5,-5,-3,-1,-3,-4,1
40.45363712310791,0,0,3,4,1,0,-2,0,1
40.453641176223755,-1,-1,-5,-4,-4,-1,-3,1,1
40.46452522277832,0,0,-1,2,2,2,4,0,1
40.46453046798706,-1,1,-1,1,-1,-1,-1,0,1
40.47416353225708,1,1,3,2,5,2,2,-1,1
40.47416806221008,0,0,0,-1,-2,-2,0,0,1
40.48658728599548,-4,-2,-5,-6,-4,-2,-3,-2,1
40.48659110069275,-1,-1,-1,-3,-2,0,-2,-1,1
40.496424198150635,1,-1,-1,-7,-6,-1,-2,-2,1
40.49642896652222,1,1,3,5,4,0,3,2,1
40.51016902923584,1,-2,-1,0,-2,-2,-4,-3,1
40.510172605514526,0,0,1,2,-1,-1,1,0,1
40.51167178153992,-1,-2,-4,0,0,3,1,0,1
40.51167440414429,0,0,-2,-2,-3,-1,-2,-3,1
40.532612562179565,1,1,2,7,5,1,6,2,1
40.532615184783936,-3,-5,-7,-9,-7,-5,-9,-6,1
40.534082889556885,-1,1,1,3,2,0,1,1,1
40.534085512161255,-4,-5,-2,-3,-1,-2,-3,-1,1
40.54671049118042,0,0,-2,-5,-4,-3,-3,-1,1
40.54671597480774,5,3,3,5,6,3,3,3,1
40.556817054748535,-2,0,-1,2,2,1,2,2,1
40.55682349205017,0,-2,-1,-3,-3,-3,-2,-2,1
40.570743560791016,-2,-2,0,0,0,1,1,0,1
40.57074809074402,-3,-3,-4,-5,-5,-3,-5,-3,1
40.57376503944397,2,0,0,0,-1,-1,-2,-1,1
40.57377099990845,-1,0,0,-2,0,0,0,3,1
40.584683418273926,1,-1,1,0,-1,-2,-3,-1,1
40.58468794822693,1,0,2,4,3,-2,1,2,1
40.59389877319336,-6,-4,-6,-10,-7,-1,-4,-3,1
40.59390354156494,-1,0,-2,-2,-5,0,-3,-3,1
40.606727838516235,1,3,1,2,3,2,0,-1,1
40.6067316532135,-1,-1,1,5,2,0,0,-2,1
40.61618375778198,0,1,3,1,1,0,0,2,1
40.616188049316406,-1,-2,-2,0,0,-1,-3,-2,1
40.630419969558716,-2,0,-1,-3,-4,-2,-2,1,1
40.63042402267456,0,1,-2,-3,1,-2,1,-2,1
40.6324348449707,2,1,1,0,1,0,1,-5,1
40.63243842124939,-1,-1,-1,-3,-2,-4,-4,-5,1
40.64405298233032,-1,1,0,0,1,-1,0,2,1
40.644057273864746,-1,-2,-4,-2,1,3,3,0,1
40.654568672180176,-1,0,-3,-2,-4,-5,-5,-2,1
40.65457367897034,-1,0,-2,-4,0,-1,-1,-2,1
40.66659688949585,0,0,2,4,-1,-1,-1,0,1
40.666600942611694,-1,-1,-1,3,3,4,2,2,1
40.675928831100464,-2,-4,-6,-8,-10,-7,-6,-3,1
40.67593264579773,1,1,0,3,3,0,2,-1,1
40.69795083999634,2,1,2,3,2,1,3,2,1
40.69795370101929,0,0,2,2,2,1,0,-3,1
40.699179887771606,-1,-1,-3,-6,-5,-3,-1,1,1
40.6991822719574,-2,0,-2,0,2,1,0,0,1
40.70422863960266,-2,-4,-4,-5,-4,-3,-1,-3,1
40.704232931137085,2,3,4,6,4,2,2,1,1
40.7135443687439,-3,0,0,2,0,0,-1,0,1
40.71354818344116,-2,-4,-3,-5,-4,-2,-2,-4,1
40.727057218551636,4,5,4,5,4,2,2,1,1
40.727062940597534,-3,-3,-7,-9,-4,-4,-4,-4,1
40.73654580116272,-1,-2,0,-2,-3,-1,1,3,1
40.73655080795288,0,3,3,8,4,1,2,3,1
40.75012159347534,-6,-6,-8,-14,-12,-5,-6,-8,1
40.75012397766113,4,4,4,3,1,1,2,1,1
40.75156569480896,0,-3,-3,0,1,1,-2,-3,1
40.75156855583191,-2,0,0,0,0,-2,-2,-2,1
40.76373553276062,1,-1,-1,1,2,0,0,3,1
40.76373839378357,-3,-2,-5,-6,-7,-4,-4,-2,1
40.77485013008118,3,2,4,7,9,4,4,1,1
40.77485656738281,-4,-5,-7,-12,-9,-7,-6,-3,1
40.786592960357666,0,1,0,-3,-2,-2,-1,-1,1
40.78659701347351,-1,0,2,0,-4,-3,0,-1,1
40.79582500457764,3,2,2,9,10,7,4,-2,1
40.79582858085632,-3,-2,-5,-12,-13,-8,-7,-4,1
40.81002378463745,-3,-1,-2,-1,-1,-2,-1,0,1
40.810027837753296,1,1,2,4,2,2,3,0,1
40.816524267196655,-2,-1,-4,-7,-8,-4,-4,-2,1
40.8165283203125,0,-1,1,5,4,3,1,3,1
40.83312225341797,-5,-5,-7,-8,-6,0,-5,-5,1
40.83312630653381,1,-1,0,0,0,1,2,2,1
40.83527994155884,-1,-1,2,1,0,1,0,-2,1
40.835283041000366,-1,1,0,2,2,-1,-2,-4,1
40.84659719467163,2,3,1,5,3,1,5,1,1
40.84660077095032,-3,-2,-3,-2,-2,-1,-2,-3,1
40.8570339679718,0,1,1,2,0,-1,0,3,1
40.85703921318054,1,0,-2,-3,-3,0,1,-1,1
40.869991064071655,-1,-1,0,1,0,-1,-2,0,1
40.86999559402466,-4,-3,-3,-4,-5,-4,-7,-4,1
40.876542806625366,2,2,-1,0,2,-2,1,1,1
40.876546144485474,2,2,4,6,4,2,3,2,1
40.89306950569153,-5,-5,-7,-6,-4,-2,-8,-6,1
40.89307355880737,-3,-3,-3,-3,-3,0,-2,-2,1
40.89531493186951,-2,-3,-2,-5,-5,-3,-3,0,1
40.89531946182251,2,1,2,3,4,3,5,3,1
40.915443897247314,4,1,2,5,2,-1,2,0,1
40.91544795036316,-1,0,-2,-4,0,-1,-2,-1,1
40.91760611534119,0,-2,0,2,-2,-2,-4,-2,1
40.91761016845703,-1,-1,-3,0,-1,-2,1,0,1
40.931514501571655,1,2,2,4,3,2,1,1,1
40.93151879310608,1,1,-2,-2,-1,0,-1,0,1
40.9370436668396,1,0,-1,3,3,2,4,-1,1
40.9370481967926,-3,-4,-4,-5,-4,-5,-4,0,1
40.953388690948486,1,1,3,6,3,-2,1,2,1
40.953394412994385,0,-1,-3,-8,-6,-1,1,-1,1
40.956297874450684,-3,-3,-5,-6,-3,2,-4,-8,1
40.95630192756653,-1,0,2,0,1,3,2,1,1
40.9757022857666,-1,-2,-1,-2,-2,-3,-2,0,1
40.975706815719604,-1,0,3,2,2,1,3,3,1
40.978018283843994,-1,0,-3,-6,-6,-4,-2,0,1
40.97802186012268,0,1,-1,3,2,1,1,-2,1
40.99014949798584,-1,-1,-1,-2,-2,1,0,0,1
40.99015498161316,1,-1,0,1,2,1,-2,0,1
40.996678829193115,2,0,2,6,2,0,2,1,1
40.99668312072754,-5,-5,-5,-5,-6,-6,-9,-5,1
41.013091802597046,-1,1,0,-7,-4,-1,0,2,1
41.01309609413147,-1,-1,-2,-2,-5,-2,-1,-4,1
41.016714334487915,1,0,1,0,6,3,1,-1,1
41.01671886444092,4,4,7,9,5,2,5,4,1
41.02688765525818,-4,-5,-6,-9,-4,-3,-7,-7,1
41.02689242362976,0,2,2,4,3,2,1,5,1
41.03614258766174,-2,-3,-4,-7,-8,-3,-2,-2,1
41.03614664077759,3,1,0,1,-3,-1,-1,0,1
41.0497362613678,-2,-1,0,4,4,2,3,0,1
41.04974031448364,1,0,-2,-3,0,-3,0,0,1
41.05667567253113,1,3,5,5,2,-2,-1,-1,1
41.05668020248413,-3,-5,-6,-10,-8,-6,-5,-5,1
41.073107957839966,-1,2,1,-1,-1,0,0,0,1
41.07311201095581,1,-1,0,6,4,-1,0,-4,1
41.07534122467041,-7,-7,-9,-17,-14,-9,-11,-4,1
41.0753448009491,0,1,2,1,2,2,2,1,1
41.08669114112854,1,-2,0,-1,0,1,1,-2,1
41.0866961479187,1,1,2,0,2,1,0,-2,1
41.09641742706299,2,0,1,6,3,4,3,0,1
41.09642243385315,-3,-1,-4,-6,-4,-4,-8,-4,1
41.11007380485535,1,1,0,-3,-6,-2,-1,1,1
41.11007833480835,-4,-1,-3,-3,-1,-1,0,-1,1
41.11677932739258,1,1,-1,-1,0,1,3,-2,1
41.11678409576416,0,1,1,2,1,1,1,0,1
41.13307476043701,2,3,2,9,8,2,5,3,1
41.133079051971436,-8,-9,-12,-20,-17,-9,-12,-5,1
41.13528609275818,2,2,3,5,3,1,1,-1,1
41.135292053222656,4,1,4,4,4,4,5,3,1
41.14662981033325,1,0,2,1,3,0,-1,-2,1
41.1466338634491,-6,-6,-7,-12,-10,-3,-4,-5,1
41.156373739242554,-1,0,0,-1,1,0,0,-1,1
41.15637826919556,-1,-1,-1,3,1,1,1,0,1
41.17074680328369,2,1,2,0,-3,-2,2,0,1
41.17075157165527,-2,-1,-2,1,1,1,0,-1,1
41.18427920341492,0,-1,1,-1,3,0,0,3,1
41.1842839717865,3,5,5,8,5,1,5,3,1
41.19307470321655,-5,-7,-9,-10,-6,-1,-6,-7,1
41.1930787563324,3,-1,1,0,1,-2,0,4,1
41.195595502853394,0,2,-1,3,1,2,1,1,1
41.195600271224976,-2,-1,-1,-5,-3,1,-1,-1,1
41.20668029785156,1,4,4,7,5,0,2,0,1
41.206684827804565,0,-1,1,6,2,2,3,0,1
41.21628475189209,-3,-4,-4,-6,-4,-3,-4,0,1
41.21628975868225,1,-3,-3,-4,0,1,1,1,1
41.22987937927246,-2,-1,-2,-3,-1,-2,1,-2,1
41.22988319396973,4,3,4,5,6,1,1,0,1
41.23669743537903,2,3,1,0,-2,-1,1,1,1
41.236701011657715,-5,-5,-6,-6,-9,-7,-8,-9,1
41.253798484802246,4,1,5,4,0,2,3,2,1
41.253803730010986,-1,0,-1,-1,2,2,0,-3,1
41.25652575492859,-3,-3,-4,-3,-5,-4,-4,1,1
41.256529569625854,-2,-1,-2,-2,0,2,1,-1,1
41.26649785041809,0,0,-2,-2,-1,-1,-1,-2,1
41.266501665115356,2,0,1,4,1,-2,-1,-1,1
41.276466608047485,0,-1,-1,-4,-3,-3,-2,-1,1
41.27647089958191,0,-1,-1,0,-2,-2,0,-1,1
41.29028391838074,-2,-2,-1,4,3,1,1,1,1
41.29029059410095,2,2,1,3,5,3,3,2,1
41.29661297798157,-3,-2,-6,-5,-7,-6,-4,-5,1
41.29661822319031,-2,-4,-4,-9,-4,-1,-4,1,1
41.31311535835266,-1,-2,-2,-4,-1,1,-1,-3,1
41.31312084197998,0,0,2,0,-2,-4,-2,-1,1
41.31524896621704,2,1,3,8,8,1,2,-2,1
41.31525230407715,-2,-2,-2,-7,-5,-2,0,-1,1
41.32664394378662,-2,0,-2,-2,-2,-3,-1,-2,1
41.326648235321045,-1,0,0,-3,-1,-1,1,-2,1
41.335551738739014,4,2,2,4,4,3,4,2,1
41.33555579185486,-1,-2,-3,0,2,1,-2,-4,1
41.35011029243469,-1,-4,-4,-5,-4,-3,-4,0,1
41.35011529922485,-1,1,0,3,2,-1,0,1,1
41.35790681838989,0,0,3,2,2,1,2,1,1
41.35791087150574,0,1,1,0,-2,-3,-1,-2,1
41.37304449081421,-3,-5,-4,-7,-13,-8,-9,-4,1
41.373048305511475,0,0,-2,-3,-2,2,-2,-1,1
41.375179290771484,0,0,0,-2,-1,0,0,0,1
41.37518262863159,-2,1,1,1,0,1,-1,2,1
41.38662791252136,3,3,5,7,6,1,3,3,1
41.386632204055786,-3,0,-2,-2,-2,0,0,-1,1
41.39596652984619,-1,-1,-1,-1,-1,0,1,0,1
41.395970821380615,2,2,1,1,-1,-2,0,-1,1
41.41001868247986,-1,1,0,0,0,1,2,1,1
41.41002345085144,2,1,0,3,3,1,1,-2,1
41.417569160461426,-6,-6,-6,-8,-11,-7,-8,-6,1
41.41757655143738,2,0,2,4,2,1,1,1,1
41.43310332298279,0,0,1,4,4,1,3,-1,1
41.43310737609863,-1,-3,-2,-4,-1,0,-3,-4,1
41.43594026565552,1,0,0,3,0,0,2,-4,1
41.43594527244568,-2,-4,-5,-6,-4,-1,-1,0,1
41.44666576385498,-3,-2,-4,-3,-3,0,-3,-4,1
41.44667077064514,0,0,1,0,-3,-3,0,0,1
41.45605421066284,1,0,2,1,0,1,-2,1,1
41.45605778694153,3,4,6,9,7,3,4,1,1
41.469900369644165,-7,-8,-13,-16,-15,-7,-9,-6,1
41.46990489959717,-2,-2,-1,-4,-5,-1,1,3,1
41.47675943374634,-3,0,-2,1,3,1,2,0,1
41.47676372528076,1,1,0,3,2,2,-1,-2,1
41.49309682846069,1,0,-1,-1,-3,-2,-1,-3,1
41.493101596832275,-1,0,2,6,1,0,1,0,1
41.49515104293823,-1,-3,-5,-9,-9,-4,-4,0,1
41.49515390396118,-2,0,0,3,4,3,3,1,1
41.50689888000488,-1,-1,0,-2,-1,0,0,-1,1
41.506903409957886,-1,0,-1,0,-2,-2,-2,0,1
41.5157732963562,1,1,0,3,6,4,6,0,1
41.51577615737915,-2,-3,-3,-1,-6,-5,-3,-2,1
41.53845024108887,-2,-3,-2,-2,1,-2,-4,-1,1
41.538455963134766,2,0,-1,-4,-1,0,1,0,1
41.540608644485474,1,1,5,11,7,4,2,2,1
41.54061222076416,-3,-5,-7,-13,-10,-6,-6,-5,1
41.554006814956665,-1,-1,2,1,1,-1,0,-2,1
41.55401301383972,-1,-1,-1,0,1,2,0,-1,1
41.556318044662476,2,0,1,3,2,-1,1,1,1
41.55632185935974,1,-2,-3,-3,-3,0,1,-1,1
41.566184759140015,-1,0,-2,-5,-7,-4,-4,1,1
41.566187620162964,0,-1,-2,-1,-1,-2,-4,-3,1
41.57601714134216,1,1,0,1,1,3,-1,2,1
41.57602119445801,3,4,3,6,2,0,2,1,1
41.589797258377075,-3,-4,-3,1,3,1,3,0,1
41.58980131149292,-2,-1,-1,-8,-7,-4,-4,-2,1
41.59728956222534,-3,-2,0,-1,1,-1,1,0,1
41.5972957611084,0,0,1,0,0,0,-1,-3,1
41.6134729385376,4,4,6,9,5,4,5,1,1
41.6134774684906,-3,-5,-6,-4,-1,-1,-1,-3,1
41.61560869216919,-2,-3,-2,-5,-3,-4,-3,-3,1
41.615612268447876,-2,-2,-2,-1,-1,-2,-1,-1,1
41.626670598983765,2,4,3,4,3,0,3,4,1
41.62667489051819,-3,-4,-3,-7,-6,-3,-6,-3,1
41.644564390182495,0,0,0,-2,-6,-4,-4,-2,1
41.64456868171692,-2,1,1,2,5,2,4,0,1
41.64990949630737,-3,-2,-3,-3,-4,-4,-4,-3,1
41.64991331100464,1,0,2,0,1,-1,4,1,1
41.65656781196594,-1,-1,0,-2,0,1,-1,-2,1
41.65657186508179,0,0,0,-2,-3,0,-3,0,1
41.6730899810791,2,2,3,5,2,2,1,3,1
41.673094034194946,2,1,3,10,7,2,3,2,1
41.67615866661072,-3,-5,-7,-16,-15,-9,-9,-3,1
41.67616295814514,1,2,1,5,3,1,1,0,1
41.686577558517456,-4,-4,-5,-2,-3,-2,-3,-3,1
41.6865816116333,-1,2,0,1,-2,-2,1,2,1
41.69594764709473,-2,-1,-2,0,1,2,1,-4,1
41.69595170021057,-2,-2,-4,-4,-3,1,-2,-1,1
41.70919585227966,3,2,3,0,1,2,1,0,1
41.70919990539551,-4,-2,0,-3,-2,-1,-3,-1,1
41.71895360946655,1,3,2,7,6,0,3,-3,1
41.71895742416382,-4,-5,-5,-11,-9,-3,-5,-4,1
43.674846172332764,-2,0,-2,-1,-1,-1,-1,0,2
43.67485070228577,2,0,0,-3,0,2,1,-1,2
43.689292907714844,1,-1,-1,4,4,4,-2,-1,2
43.68929982185364,-1,2,-2,0,-2,-2,-1,-1,2
43.69739246368408,0,-3,0,0,-1,-2,0,1,2
43.69739747047424,-1,0,-3,-4,-4,-2,-2,-1,2
43.704495906829834,-1,0,-4,-4,-2,1,1,0,2
43.70450162887573,2,-1,-1,2,1,-1,-2,-3,2
43.72116160392761,-2,-1,0,-1,-4,0,0,-2,2
43.721168994903564,0,-1,-1,-2,-1,-1,0,1,2
43.724618911743164,-1,-1,-1,0,1,-1,-1,-1,2
43.72462439537048,-2,-3,-2,-3,-1,-1,-1,-2,2
43.73505187034607,0,1,-1,-1,0,1,0,1,2
43.73505640029907,0,-3,1,-2,1,0,-2,-1,2
43.74166440963745,2,1,3,2,0,0,0,2,2
43.74166822433472,0,-2,-2,-2,-1,1,-1,-5,2
43.757909536361694,-3,-3,-16,-8,-7,-5,-4,-2,2
43.75791549682617,-1,-3,6,-6,-8,-4,-5,-3,2
43.764437437057495,2,0,-4,-2,1,2,4,2,2
43.7644419670105,2,0,2,3,9,2,2,-2,2
43.7809271812439,1,1,3,7,4,2,2,-3,2
43.78093075752258,-2,-2,-2,2,0,-1,-2,0,2
43.782150983810425,-2,-2,1,-1,-4,-1,-1,1,2
43.78215265274048,0,-2,-3,-8,-7,-1,-1,-2,2
43.79482126235962,1,1,1,1,5,1,0,0,2
43.794825077056885,-3,-6,-7,-2,-2,-4,-5,-4,2
43.80168652534485,-3,-1,1,-4,-1,0,-1,-2,2
43.801690101623535,0,2,2,3,1,-1,0,2,2
43.81757116317749,0,-1,0,-5,-2,0,-1,-3,2
43.817574977874756,-1,1,1,1,2,-1,1,1,2
43.82421946525574,-2,-3,-6,-3,-1,-2,-1,-3,2
43.8242244720459,-2,-1,0,-1,-1,-1,0,2,2
43.84063196182251,2,0,4,4,-1,0,1,-2,2
43.84063744544983,3,0,-2,-1,0,2,3,0,2
43.843215227127075,0,-1,-1,-4,-2,-1,-1,-4,2
43.843220233917236,-1,0,0,0,-1,0,-1,0,2
43.854918003082275,-1,-1,2,0,-1,0,1,2,2
43.85492277145386,-2,-1,-3,1,-1,1,0,1,2
43.86169958114624,-2,-1,2,3,4,3,3,-1,2
43.86170315742493,-3,0,-3,-3,-3,-2,-3,-2,2
43.877442836761475,-2,-3,-2,-3,0,-1,-3,-1,2
43.87744760513306,2,1,0,2,1,1,1,0,2
43.88444924354553,-2,-2,-4,-12,-9,-6,-6,-3,2
43.88445544242859,-1,1,1,0,4,1,4,-1,2
43.90052556991577,0,2,5,7,2,1,0,-3,2
43.900529623031616,-2,-3,0,1,-1,-5,-3,-5,2
43.90269184112549,-1,0,0,2,-1,1,-1,2,2
43.902695655822754,-2,-2,-5,-2,-3,-2,-4,-3,2
43.914886713027954,0,0,-1,-4,0,1,1,2,2
43.91489052772522,4,4,4,3,0,0,2,-1,2
43.921801805496216,0,0,0,0,3,-2,1,0,2
43.921807527542114,0,0,0,-1,-3,-2,-1,-2,2
43.93758416175842,0,-1,0,2,1,1,1,-1,2
43.937589168548584,-3,-1,-4,-4,-4,-2,-2,-2,2
43.951619386672974,0,1,1,3,1,0,3,0,2
43.95162320137024,-1,-4,-3,-3,-3,-3,-4,-1,2
43.95971393585205,-2,-3,-2,-4,-4,-1,-5,-2,2
43.959717988967896,-1,-1,-1,-3,-3,-1,-1,-1,2
43.968536138534546,1,0,2,5,3,2,1,-1,2
43.96853971481323,-2,-1,-3,-2,-4,-2,-2,-3,2
43.974812746047974,-2,-1,3,-1,-2,-2,-2,0,2
43.97481632232666,-1,-1,-2,-4,1,2,1,0,2
43.98165416717529,3,3,3,6,5,0,3,1,2
43.98165798187256,2,0,2,4,2,4,3,1,2
43.998714447021484,-1,-4,-5,-7,-8,-6,-5,-4,2
43.99871802330017,-2,0,0,2,-1,-1,-1,0,2
44.01159334182739,1,-1,1,1,0,0,-2,0,2
44.01159715652466,-1,-2,1,5,3,2,2,0,2
44.02109169960022,-4,-5,-8,-12,-11,-8,-5,-3,2
44.021098613739014,1,0,1,-1,5,1,1,2,2
44.023255825042725,1,1,-1,0,0,0,1,-3,2
44.02325940132141,1,-2,1,0,-1,-1,-1,-1,2
44.03607797622681,0,-1,-3,2,2,2,1,1,2
44.03608250617981,-2,-2,-4,-7,-5,-3,-4,-4,2
44.04233908653259,-2,-4,-2,-1,-1,2,-1,-1,2
44.04234433174133,2,3,3,3,-1,0,-1,-1,2
44.057640075683594,1,1,3,2,2,1,2,-2,2
44.05764579772949,-4,-4,-5,-7,-6,-5,-4,-3,2
44.06418228149414,-1,-1,-2,-1,-2,-1,0,0,2
44.06418752670288,-1,-1,0,0,5,-1,-1,1,2
44.08106875419617,2,0,-3,4,2,1,3,0,2
44.08107399940491,2,1,-1,4,0,1,-1,-1,2
44.08350157737732,0,1,-1,-2,-1,0,0,-3,2
44.08350586891174,1,-2,-3,-10,-7,-2,-3,-3,2
44.095433473587036,-2,0,1,0,0,-1,-2,1,2
44.09544014930725,-1,0,-1,0,-2,0,-1,1,2
44.10200357437134,-2,-4,-4,-2,-1,0,0,-2,2
44.1020085811615,0,1,-1,-2,-2,-1,0,0,2
44.11744284629822,2,2,2,2,4,1,0,0,2
44.11744689941406,-1,-3,-2,-1,0,0,-1,-2,2
44.12420415878296,1,1,2,3,4,-1,0,0,2
44.124208211898804,-3,-2,-3,-3,-3,-3,-3,-2,2
44.141133546829224,0,-2,-2,-1,0,1,1,0,2
44.141138553619385,-1,0,2,-1,-2,-1,-1,-3,2
44.14335608482361,0,-1,0,-2,-3,0,-2,-1,2
44.143359661102295,-1,-1,0,3,0,1,0,1,2
44.154860496520996,0,-2,-2,-1,-1,-2,-1,0,2
44.15486431121826,0,1,-1,0,2,1,2,0,2
44.16188621520996,0,-1,-1,0,-1,-1,-3,-2,2
44.161890268325806,-3,-2,-3,-1,-1,0,0,-1,2
44.17743158340454,-2,0,-2,-2,0,1,0,-2,2
44.1774365901947,1,-1,1,2,1,2,1,1,2
44.18413209915161,0,-1,-1,1,-1,-1,-3,-2,2
44.18413543701172,-1,-2,-4,-6,-3,-3,-2,-1,2
44.20059418678284,-1,-1,1,1,0,1,1,-1,2
44.20059847831726,-3,-1,-3,0,-2,-1,-1,0,2
44.202725648880005,1,1,1,-1,0,0,1,-1,2
44.20272994041443,2,-1,2,5,4,1,2,1,2
44.21414637565613,-2,-6,-5,-10,-5,-2,-6,-10,2
44.21415042877197,1,-1,0,-4,-2,-1,-2,0,2
44.2243812084198,0,1,1,3,-1,-1,-1,1,2
44.22438669204712,-2,-3,-4,-4,-5,-4,-3,-3,2
44.23788261413574,-1,-1,-3,-5,-2,-1,-1,-1,2
44.23788928985596,-2,-2,-4,-2,-1,0,-1,1,2
44.24376368522644,0,-1,-2,-1,-2,-3,-1,-2,2
44.24376702308655,0,-1,1,1,2,1,1,0,2
44.26102304458618,0,1,2,4,1,0,3,4,2
44.2610297203064,0,-3,0,3,0,0,-1,-3,2
44.2632782459259,-5,-4,-6,-9,-4,-1,-2,0,2
44.26328158378601,0,3,-1,-4,-1,3,0,-2,2
44.27536344528198,0,-2,0,1,-1,-2,-2,-2,2
44.27537202835083,0,0,1,2,3,-1,1,1,2
44.28379535675049,0,-1,-1,-1,-1,0,1,-1,2
44.28380084037781,0,-1,1,3,3,1,0,0,2
44.297518491744995,0,0,-4,-7,-7,-4,-3,-2,2
44.29752278327942,0,1,1,1,0,0,-2,0,2
44.304306507110596,-2,-1,0,-1,1,0,0,0,2
44.30431127548218,-1,-4,-4,-5,-3,1,-1,-3,2
44.32071566581726,1,2,4,4,3,3,2,2,2
44.320720195770264,-1,-2,-2,0,-2,-3,0,-2,2
44.323413610458374,0,-1,0,-2,-5,-2,-1,-2,2
44.32341814041138,0,-1,-1,-2,-1,-1,1,0,2
44.3342022895813,0,1,-2,4,4,1,1,-1,2
44.334206342697144,-1,-2,-2,-5,0,0,-1,-3,2
44.344377517700195,-2,-1,1,1,0,-2,-2,-1,2
44.344382524490356,-1,1,2,2,-3,0,-2,1,2
44.35791230201721,-1,-2,1,0,0,0,0,0,2
44.35791802406311,0,-1,-2,-3,-2,-1,1,-2,2
44.36377549171448,1,-1,1,5,1,-1,-1,0,2
44.36377811431885,-1,-2,-2,-1,0,-1,-2,0,2
44.38014888763428,1,1,2,0,-2,0,0,0,2
44.38015174865723,-1,-2,-1,-1,-3,-1,-2,-2,2
44.38164138793945,-2,-1,-2,-2,-2,-2,-3,0,2
44.381643772125244,0,-2,0,-3,-1,0,0,0,2
44.40332102775574,0,-1,-1,-1,-2,-1,-1,-1,2
44.403326749801636,2,-1,2,1,1,0,2,1,2
44.40603590011597,2,1,0,1,-2,-1,-3,0,2
44.40603947639465,-2,-2,-2,-2,-1,-3,-2,-2,2
44.41778016090393,-2,0,-1,-4,-1,2,0,0,2
44.41778540611267,-1,-2,-5,-5,-3,-1,-1,-2,2
44.42420029640198,1,-1,-2,-2,-1,0,1,-1,2
44.42420506477356,-1,-1,1,2,-3,0,-1,-1,2
44.44053769111633,-2,-2,-2,1,0,-1,0,0,2
44.440542221069336,2,2,2,1,5,2,0,0,2
44.4426486492157,-3,-4,-9,-9,-8,-4,-6,-5,2
44.44265294075012,-1,0,-1,0,1,-2,0,-1,2
44.4542191028595,-2,-2,-1,-2,-5,-4,-2,-3,2
44.45422387123108,-2,-2,0,1,-4,0,0,1,2
44.46378421783447,0,2,2,4,4,2,2,0,2
44.4637885093689,1,0,0,-2,0,-1,0,-2,2
44.47753405570984,-2,-2,-4,-2,-2,-2,-2,0,2
44.47753882408142,1,1,-1,3,1,1,0,0,2
44.484227418899536,1,0,1,-1,1,2,3,1,2
44.48423194885254,-3,-2,-1,0,-4,-4,-5,-3,2
44.500513315200806,0,-1,-1,0,1,2,2,-1,2
44.50051736831665,-4,-3,-1,-3,-1,-2,-1,-2,2
44.50525665283203,-1,-1,-1,-2,-1,-1,-2,1,2
44.50526142120361,1,0,-1,-3,-1,1,1,-1,2
44.51430416107178,1,0,2,3,2,2,0,-1,2
44.51430940628052,-2,-2,1,5,3,1,1,-1,2
44.5247962474823,-1,-3,-5,-10,-7,-5,-3,0,2
44.524802446365356,1,0,-2,1,0,1,0,0,2
44.537657499313354,-1,-2,-2,-4,-5,-3,-3,-1,2
44.53766322135925,1,2,-1,-1,3,2,3,0,2
44.544188499450684,0,-1,0,1,-2,-1,-1,-1,2
44.54419302940369,-2,-1,-2,-2,-1,1,2,-2,2
44.56066083908081,0,1,1,3,2,1,1,-1,2
44.56066608428955,0,1,0,-1,3,0,0,1,2
44.56303668022156,0,-2,0,1,3,-1,1,-2,2
44.563040018081665,0,-2,-2,-1,-2,-2,-2,-1,2
44.57478332519531,-2,-3,-3,-5,-1,-1,-3,-5,2
44.57479286193848,0,-1,-1,0,-3,-2,-2,-2,2
44.585230588912964,-4,-2,-2,-2,0,-2,-2,-1,2
44.585235357284546,1,2,1,5,2,0,2,1,2
44.59746217727661,-1,0,0,-1,-3,-3,-2,-1,2
44.597466230392456,-2,-3,-5,-8,-5,-2,-4,-3,2
44.60413432121277,-2,-2,-2,-3,0,1,1,0,2
44.604137897491455,-1,-3,-1,-3,-2,-1,-4,-3,2
44.6198148727417,2,-1,1,4,3,-1,-1,2,2
44.619818449020386,0,0,0,0,-1,-1,-1,-1,2
44.62670040130615,-1,1,1,2,-1,2,0,1,2
44.626705169677734,0,0,2,2,1,0,2,-1,2
44.63409376144409,0,1,-1,1,1,1,0,-2,2
44.63409686088562,-4,-4,-6,-12,-10,-3,-6,-3,2
44.64405059814453,-1,-2,1,2,-1,-2,-3,-3,2
44.644055128097534,-1,-1,-1,-1,-2,-2,-1,1,2
44.65810036659241,-1,-1,-3,0,2,-1,1,1,2
44.65810704231262,3,3,3,7,4,2,4,0,2
44.67184066772461,0,-1,-1,-2,-3,-1,-1,0,2
44.671847343444824,0,0,2,3,0,0,0,0,2
44.67989706993103,2,1,0,3,1,0,1,-3,2
44.67990064620972,-3,-7,-8,-10,-12,-9,-8,-6,2
44.686713457107544,-3,0,-1,-2,-1,1,0,1,2
44.68671798706055,-1,-1,0,3,3,2,1,-1,2
44.71070170402527,-1,-1,-1,2,1,1,1,2,2
44.71070623397827,1,2,0,2,5,2,2,-1,2
44.712836265563965,1,0,-2,0,-1,-1,-2,-1,2
44.71283936500549,0,-2,-1,-6,0,-3,-1,-1,2
44.717514753341675,1,0,1,1,-2,0,1,1,2
44.71751856803894,-2,-1,-2,1,0,1,-1,1,2
44.72405028343201,0,-1,-3,-3,-1,0,-2,-1,2
44.72405409812927,0,0,-2,2,0,0,0,0,2
44.73982214927673,-2,0,0,2,-3,-1,-2,-4,2
44.73982644081116,-1,0,2,-3,-3,-3,-1,1,2
44.74673795700073,-1,0,0,0,2,0,1,-3,2
44.746742725372314,1,1,-2,2,4,1,1,0,2
44.763009548187256,-3,-7,-9,-9,-8,-5,-6,-5,2
44.76301383972168,0,-1,0,2,-2,-1,-1,2,2
44.765140771865845,2,1,2,3,1,2,5,2,2
44.765143632888794,-1,0,0,-2,-5,-2,-4,0,2
44.777422189712524,-2,-1,1,4,1,0,1,0,2
44.77742600440979,1,0,1,2,3,0,-1,-2,2
44.784160137176514,-2,-2,-4,-7,-7,-2,0,-2,2
44.78416323661804,0,0,0,1,-1,-3,-1,0,2
44.79985594749451,-2,-1,-3,-5,0,-1,-1,-1,2
44.79985952377319,1,-1,1,4,0,2,0,1,2
44.8072247505188,0,-1,2,2,3,2,0,-1,2
44.80723023414612,-3,-3,-2,-8,-8,-4,-2,-2,2
44.823012590408325,0,0,-1,-2,-1,-1,0,0,2
44.82301640510559,0,-1,0,3,1,1,1,-3,2
44.825051069259644,1,0,0,4,4,-1,1,-1,2
44.82505416870117,0,-1,3,1,-1,-3,-1,0,2
44.837438344955444,-3,-4,-6,-8,-4,-1,-5,-3,2
44.83744192123413,1,1,1,0,-1,-1,-1,1,2
44.844215631484985,1,0,0,2,-1,-1,2,0,2
44.844220876693726,0,2,1,5,2,3,3,-1,2
44.860031843185425,-3,-4,-5,-7,-3,-1,-3,-5,2
44.86003661155701,-2,0,-2,0,1,-1,0,1,2
44.86662817001343,-2,-4,-2,-2,-2,-1,-4,-1,2
44.86663269996643,2,-1,-1,-2,-1,-2,-1,0,2
44.88327956199646,3,2,4,5,5,2,5,2,2
44.8832848072052,-1,-3,-4,-2,-1,-1,-1,-2,2
44.88628530502319,-1,-2,0,0,-4,-2,-1,0,2
44.886289834976196,-2,-1,-2,-4,0,-1,0,0,2
44.89818000793457,-1,1,3,0,-1,-1,-1,0,2
44.898186683654785,-2,-2,-2,-5,-4,0,-2,-5,2
44.90474224090576,0,0,-1,-1,-2,-3,-4,-1,2
44.90474820137024,-2,-4,-1,1,1,0,-3,1,2
44.919211864471436,2,1,2,0,0,0,0,-1,2
44.91921663284302,2,6,3,4,3,2,3,1,2
44.927063941955566,-4,-3,-5,-7,-2,-4,-3,-4,2
44.92707085609436,-4,-3,-4,-5,-6,0,-2,0,2
44.94278955459595,0,1,1,1,0,-1,2,1,2
44.942797899246216,3,1,3,3,2,1,2,1,2
44.94427704811096,0,2,0,0,1,-1,-1,-1,2
44.94428086280823,0,-2,-6,-3,-2,-2,-2,-4,2
44.959442138671875,0,-3,-1,0,1,-1,0,0,2
44.959450006484985,-2,0,0,-2,-3,-3,0,2,2
44.96411609649658,1,1,1,4,0,2,-1,2,2
44.96411919593811,1,0,0,-3,-5,-3,-2,1,2
44.979321241378784,-3,-1,0,-2,-2,-1,-2,-1,2
44.979327917099,-3,-2,-2,-2,-1,-5,-3,-3,2
44.98680925369263,-1,0,-1,-2,0,1,2,1,2
44.98681449890137,1,0,-1,0,2,3,2,1,2
45.00240755081177,1,1,0,0,-1,0,1,0,2
45.00241255760193,-1,-7,-4,-4,-5,-4,-4,-4,2
45.00343441963196,2,2,2,3,3,1,2,1,2
45.003438234329224,-2,0,0,1,2,0,-1,-2,2
45.0185124874115,1,-1,2,1,1,1,1,-1,2
45.01851558685303,-2,0,2,0,2,0,1,-2,2
45.024353981018066,-2,-2,-2,-5,-3,-3,-2,0,2
45.02436017990112,1,1,-1,1,-1,-1,-1,-2,2
45.03915810585022,2,0,2,6,3,0,1,2,2
45.03916263580322,0,-2,-2,-1,-4,1,-3,0,2
45.04707932472229,-2,-4,-2,-2,-6,-5,-5,-4,2
45.04708552360535,-2,0,0,-5,2,0,-1,1,2
45.06249976158142,-1,1,-2,-2,0,0,-2,-2,2
45.06250548362732,3,2,1,1,2,1,2,0,2
45.063673973083496,0,-1,1,4,1,3,0,0,2
45.06367778778076,-4,-7,-6,-5,-8,-5,-6,-4,2
45.07880520820618,-2,-1,-4,-6,-4,-3,-4,0,2
45.0788094997406,0,-1,0,0,2,1,1,2,2
45.08430886268616,1,-2,-1,-3,0,0,-1,-2,2
45.08431386947632,0,1,1,4,3,0,-1,-1,2
45.09935688972473,-1,-1,-1,-3,-2,-3,-1,1,2
45.09936189651489,-1,-1,-3,-2,0,-2,1,0,2
45.10666465759277,-1,0,-1,1,-1,-2,0,-2,2
45.10666847229004,1,1,2,2,3,3,5,-1,2
45.1224365234375,-2,-1,0,4,-1,-2,0,0,2
45.122440814971924,1,-1,0,-3,-3,-2,-1,-2,2
45.12349724769592,-1,0,1,1,2,0,0,2,2
45.12350082397461,-2,-1,-2,-6,-2,-1,-2,-3,2
45.139713287353516,0,0,1,1,0,1,2,2,2
45.139721632003784,0,0,-2,0,0,-1,-1,-2,2
45.14446973800659,-3,-1,-4,-8,-5,-3,-4,0,2
45.144474029541016,-1,-1,1,3,3,1,1,-1,2
45.159486293792725,0,1,1,2,0,0,0,-1,2
45.1594934463501,0,-2,-2,-3,-4,-3,-2,-2,2
45.1667058467865,0,-1,-2,0,-1,-1,0,0,2
45.166709899902344,-1,-1,0,-2,-3,-2,-2,-1,2
45.18228340148926,-1,0,-1,0,0,-1,1,1,2
45.18228721618652,1,1,0,3,3,2,1,0,2
45.18327355384827,1,1,-2,-1,-2,-1,-2,0,2
45.183276891708374,0,-2,0,0,-1,-2,-2,0,2
45.19842886924744,0,-1,-2,0,-2,-2,-3,-1,2
45.19843244552612,-2,-2,-2,-2,-2,0,-4,0,2
45.20417618751526,-1,-1,-1,-1,0,1,-1,-2,2
45.20417928695679,-1,0,2,2,1,-1,0,1,2
45.21944713592529,1,0,-1,-3,0,-2,0,-1,2
45.21945285797119,0,-1,1,1,2,-2,-1,-1,2
45.2267324924469,-2,-3,-1,-3,-3,-5,-3,-2,2
45.2267370223999,2,-1,1,2,-1,1,1,-1,2
45.24240255355835,-3,-4,-3,-2,-2,0,-2,-3,2
45.242406606674194,1,1,3,5,2,2,1,0,2
45.243287324905396,-5,-4,-7,-7,-2,1,-4,-6,2
45.24328970909119,-1,-1,-3,-4,-3,-1,1,0,2
45.25761342048645,-1,0,0,0,1,1,1,3,2
45.25761604309082,-2,-1,-1,1,-1,-1,-1,-2,2
45.26412749290466,2,2,2,3,4,2,5,1,2
45.26413178443909,0,1,-4,-7,-2,-1,-1,1,2
45.279247999191284,0,-1,0,0,0,0,0,-4,2
45.27925229072571,-1,-1,-2,-1,2,1,-1,-2,2
45.28725862503052,0,0,-1,-6,-6,-4,-3,0,2
45.28726387023926,1,0,-1,-1,0,-1,1,1,2
45.30247497558594,1,-1,-1,-1,0,-1,-1,0,2
45.3024799823761,0,2,2,5,3,2,0,1,2
45.303555727005005,-2,-1,-1,-4,-2,0,-2,-2,2
45.30355930328369,-4,-2,0,-1,-3,-1,-1,0,2
45.3188796043396,-2,-5,-4,0,-3,-3,-5,-3,2
45.31888461112976,0,1,-2,-4,-4,-2,1,-1,2
45.324238300323486,2,3,3,5,5,2,4,2,2
45.32424306869507,1,-3,-4,-2,1,1,-1,-3,2
45.339362382888794,0,1,0,-1,-1,1,0,0,2
45.339367151260376,-3,-3,-3,-4,-3,-3,-3,0,2
45.346741914749146,0,1,0,2,0,0,1,-1,2
45.34674596786499,0,1,2,2,2,0,2,1,2
45.36232566833496,-1,2,2,1,1,0,1,-3,2
45.362329959869385,-1,-1,-2,0,1,-1,-3,-4,2
45.363250970840454,1,-1,-3,-3,-3,-1,0,0,2
45.3632538318634,2,2,3,1,1,-1,0,-2,2
45.38702988624573,-3,-6,-4,-7,-5,-2,-6,-3,2
45.38703489303589,-1,0,3,1,1,-1,-1,1,2
45.388240575790405,-3,-2,1,3,3,0,-1,-1,2
45.38824415206909,1,1,0,-1,-1,0,0,1,2
45.39910817146301,2,2,-2,1,3,1,2,0,2
45.3991117477417,-2,-3,-4,-5,-6,-4,-3,-3,2
45.406660318374634,1,-1,0,-1,0,-2,-1,-1,2
45.40666437149048,0,1,-1,-2,-3,-1,0,1,2
45.422274589538574,1,3,-1,2,2,2,1,-2,2
45.42227864265442,0,-4,0,0,-2,-2,-3,-3,2
45.42321276664734,1,1,2,2,0,1,2,2,2
45.42321491241455,2,0,0,1,0,0,-2,-2,2
45.439044713974,-3,-5,-4,-10,-12,-7,-5,-2,2
45.439049243927,0,-2,-2,-2,0,1,2,2,2
45.44434881210327,-2,-1,0,3,1,2,0,0,2
45.44435381889343,0,0,1,3,2,0,0,1,2
45.45933222770691,-1,-2,-2,2,3,1,0,-1,2
45.45933723449707,1,1,-2,-4,-2,-1,-3,-2,2
45.475038051605225,2,0,4,4,2,-1,1,-1,2
45.47504210472107,-5,-7,-12,-14,-10,-7,-5,-4,2
45.482892751693726,0,1,1,-1,-1,-1,0,-1,2
45.4828999042511,-1,0,0,1,0,1,1,1,2
45.484291553497314,1,2,3,4,4,2,2,0,2
45.48429608345032,-2,-1,-1,-1,-2,0,-4,-5,2
45.499154567718506,1,1,2,2,3,2,2,0,2
45.49915885925293,-2,-2,-5,-8,-5,-3,-3,-1,2
45.50437545776367,0,0,-1,-2,-5,-4,-3,1,2
45.504380226135254,1,-2,1,4,5,2,2,-3,2
45.5191376209259,-2,-2,0,2,-1,-3,-1,-2,2
45.51914191246033,-1,0,1,-1,-3,-2,0,-2,2
45.52771067619324,1,1,-4,-5,-2,-1,-1,-1,2
45.52771854400635,2,1,-1,0,0,1,2,1,2
45.541746616363525,1,1,1,1,1,1,0,-1,2
45.54175162315369,-1,0,0,1,-2,-2,0,-1,2
45.54930925369263,-5,-3,-2,-5,-5,-4,-2,-1,2
45.54931378364563,-4,-3,0,-1,-3,-1,-2,-4,2
45.55920386314392,0,1,-1,-2,0,0,-1,1,2
45.55920934677124,2,-1,2,4,3,1,2,1,2
45.564247369766235,0,-1,-2,-2,-1,2,0,-3,2
45.56425166130066,0,0,0,4,3,0,0,0,2
45.58770418167114,-3,-3,-3,-6,-7,-6,-4,1,2
45.58770990371704,-1,-2,-2,-5,-3,-3,0,-3,2
45.58921480178833,0,1,2,2,2,2,2,0,2
45.58922052383423,0,0,0,3,2,-1,0,0,2
45.60193347930908,-1,-1,-2,-2,-4,-1,0,0,2
45.60193753242493,-1,-1,0,1,3,1,1,0,2
45.60932374000549,0,-2,-2,0,1,1,-2,-2,2
45.60932779312134,0,-1,2,-3,-3,-1,-1,0,2
45.62560415267944,0,0,1,1,0,-1,0,0,2
45.62560844421387,-2,-1,-1,-2,-3,0,0,-1,2
45.626585483551025,-4,-2,-2,1,-2,-2,-2,0,2
45.626588344573975,0,0,1,-1,0,-1,-1,0,2
45.63914489746094,2,0,0,1,1,1,2,2,2
45.6391487121582,-3,-4,-4,-7,-7,-5,-3,-2,2
45.64664077758789,-2,-2,-2,-2,0,-1,0,-1,2
45.646644592285156,0,1,-1,0,-1,1,0,3,2
45.662158250808716,3,1,2,2,2,2,1,2,2
45.6621630191803,-2,-1,0,4,4,1,0,-1,2
45.669269323349,1,-4,-1,-2,-2,-2,-4,-2,2
45.669273376464844,-4,-2,-2,-1,-1,0,-3,-2,2
45.68503522872925,-2,-3,-1,-3,-3,-1,0,-4,2
45.68504047393799,1,0,1,1,-3,0,-1,2,2
45.68612885475159,1,2,1,0,1,-1,1,0,2
45.686131954193115,-2,-2,-2,-2,-3,-4,-5,-2,2
45.69925808906555,-5,-5,-6,-6,-3,0,-5,-4,2
45.69926309585571,-1,0,-2,0,3,-1,2,0,2
45.70665907859802,1,1,-1,2,2,1,3,0,2
45.70666265487671,-3,-3,-5,-4,-4,-3,-3,-3,2
45.72185254096985,0,3,3,7,5,1,-1,1,2
45.72185826301575,1,-1,-2,-5,-6,-3,-4,-3,2
45.72931361198425,-1,-1,-3,-1,-4,-1,-4,0,2
45.729318141937256,-1,1,-1,1,0,-1,2,-2,2
45.75247812271118,0,-1,1,0,0,0,1,-1,2
45.752482652664185,1,0,0,-1,3,2,3,-1,2
45.75358748435974,-2,-2,-1,-1,-2,-2,-1,-2,2
45.75359058380127,0,0,1,1,1,0,0,2,2
45.76167297363281,1,3,3,3,1,1,0,1,2
45.761677265167236,-1,0,-2,-1,-3,-3,-6,-2,2
45.76665115356445,-3,-3,-4,-7,-7,-3,-3,-2,2
45.76665449142456,-1,1,2,0,2,1,1,0,2
45.78176665306091,1,1,-1,1,1,0,0,-2,2
45.78177189826965,0,-2,-4,-2,0,2,-1,-4,2
45.7897789478302,3,2,1,2,1,1,-1,1,2
45.789783000946045,1,0,2,4,3,0,1,1,2
45.80478549003601,0,-1,-2,-3,-2,-2,0,1,2
45.8047890663147,-2,-4,-3,-4,-5,-2,-6,0,2
45.80583596229553,-3,0,-1,-1,-1,0,1,-2,2
45.80583906173706,4,2,1,0,0,1,3,1,2
45.820969104766846,0,-1,0,1,0,-1,-1,0,2
45.82097339630127,1,2,1,2,2,0,0,0,2
45.828290700912476,-1,0,0,1,1,1,1,1,2
45.82829570770264,-2,-1,-1,0,0,-1,-3,-3,2
45.84183073043823,-4,-5,-4,-9,-10,-6,-6,-2,2
45.84183430671692,0,0,0,2,2,1,3,1,2
45.84927248954773,0,-2,-2,-2,0,1,-1,0,2
45.849276065826416,3,1,1,5,5,5,4,0,2
45.86490559577942,-2,-3,-5,-5,0,1,-3,-6,2
45.86491131782532,-3,-2,-3,-6,-5,-4,-3,0,2
45.86591053009033,0,-1,1,-2,-2,-1,0,0,2
45.86591458320618,0,-1,0,-2,-1,-2,-1,0,2
45.88130474090576,0,1,2,5,2,2,2,-1,2
45.881308794021606,1,0,2,0,1,0,0,-3,2
45.895145893096924,-2,-2,-3,-5,0,-1,-3,-2,2
45.89515018463135,-1,0,1,1,-2,-2,-2,0,2
45.90162634849548,-2,-2,-3,-5,-3,0,-1,-1,2
45.90162968635559,0,1,2,3,2,1,0,-1,2
45.909319162368774,-2,-4,-2,-1,-3,-3,-4,-3,2
45.90932369232178,0,0,2,-3,-2,-1,-1,2,2
45.9250590801239,0,-2,-3,0,3,1,1,2,2
45.92506456375122,0,0,1,-1,-3,-2,-1,1,2
45.926159620285034,-1,2,1,4,4,1,1,-2,2
45.92616295814514,-1,-2,-4,-2,0,1,0,2,2
45.94144344329834,1,0,2,2,0,-2,-1,1,2
45.941447734832764,0,-1,-1,1,-1,-1,0,1,2
45.94834613800049,0,-2,-1,-3,-4,-1,1,0,2
45.94835042953491,1,0,1,1,1,1,1,-3,2
45.96217370033264,1,0,3,2,0,-1,-1,-3,2
45.962178468704224,-1,-1,0,-1,-3,0,-2,1,2
45.969194412231445,0,-1,-1,-1,-2,-4,0,1,2
45.96919775009155,-2,-3,-5,-5,-3,-4,-3,-2,2
45.984912633895874,2,1,-1,-2,0,0,3,0,2
45.9849169254303,2,0,0,1,0,-1,2,-3,2
45.98603534698486,-1,1,1,4,0,0,-1,-1,2
45.98603963851929,-4,-5,-6,-10,-10,-5,-6,-5,2
46.00121068954468,0,-1,1,0,-1,-3,-2,0,2
46.00121593475342,0,0,1,5,3,2,0,2,2
46.00662350654602,-1,0,-2,-1,0,-1,-1,0,2
46.00662684440613,1,1,3,5,5,4,2,3,2
46.02175760269165,-2,1,-2,0,-2,1,1,0,2
46.02176284790039,-3,-3,-2,-3,-3,-2,-2,-2,2
46.03009080886841,1,0,0,-5,-5,-1,-3,0,2
46.03009486198425,0,0,0,0,0,-2,0,0,2
46.04501557350159,0,0,-2,0,-2,1,0,-2,2
46.04501938819885,2,3,2,5,7,3,3,0,2
46.045955181121826,0,-2,-4,0,1,0,1,-1,2
46.045958280563354,-1,-2,-5,-3,-3,-5,-3,-2,2
46.06194090843201,-2,-2,-2,1,2,-1,-1,2,2
46.0619478225708,0,-2,-1,0,0,0,1,-1,2
46.0666663646698,-1,-1,1,-2,-2,-3,-2,-2,2
46.066670179367065,-2,-2,-2,-5,-2,0,-2,-4,2
46.08360147476196,-1,0,1,0,0,0,0,0,2
46.08360576629639,-5,-2,-5,-6,-6,-2,-3,-5,2
46.08934926986694,-1,0,-2,1,1,1,1,-1,2
46.08935332298279,0,2,4,5,2,2,3,0,2
46.10497522354126,-3,-3,-4,-6,-5,-1,-5,-6,2
46.10497999191284,-1,0,0,2,1,1,-1,1,2
46.10631537437439,-1,-1,0,-3,-2,-1,1,1,2
46.106319189071655,0,0,-3,0,2,0,0,-1,2
46.12114405632019,0,-3,-3,-2,-2,-2,-3,-3,2
46.12114763259888,-2,-1,-4,-8,-4,-3,-4,-1,2
46.12661814689636,2,-1,0,1,1,1,0,-2,2
46.12662220001221,0,1,2,2,0,0,0,1,2
46.141765117645264,0,1,0,2,1,0,2,3,2
46.14176940917969,0,0,0,6,4,4,2,1,2
46.14937782287598,-3,-3,-5,-5,-3,-3,-3,-4,2
46.14938187599182,-1,0,0,-5,-5,-3,-2,1,2
46.16506767272949,0,0,-3,-4,-3,-2,-1,-2,2
46.16507363319397,0,1,0,-1,-2,-2,-1,1,2
46.16606163978577,2,1,2,5,5,2,2,-1,2
46.166064500808716,0,-1,-3,1,-1,0,-2,-3,2
46.1895968914032,0,0,1,0,2,-1,0,1,2
46.18960118293762,2,-2,2,1,0,0,1,-2,2
46.19067740440369,-2,-2,-2,-5,-5,-3,-2,-2,2
46.190680742263794,-2,-2,-3,-2,-1,-2,-1,2,2
46.20186734199524,-1,2,0,3,-1,1,1,0,2
46.201871395111084,1,1,0,0,2,4,3,0,2
46.20912551879883,0,0,0,3,4,2,1,2,2
46.209129095077515,-4,-5,-5,-12,-12,-5,-6,-4,2
46.22499680519104,1,-2,-1,-3,2,1,-2,0,2
46.225001096725464,-1,-2,1,7,2,0,-2,2,2
46.22595834732056,0,-1,-2,-4,-2,-1,-1,0,2
46.22596096992493,-2,-2,-1,-2,-2,-2,-3,-3,2
46.24212718009949,-1,-1,0,2,0,-1,1,-1,2
46.242132902145386,3,0,-2,-5,-2,-1,-2,-1,2
46.24659848213196,1,2,2,3,1,1,0,-1,2
46.246602058410645,4,2,1,2,5,2,3,2,2
46.26200795173645,-3,-3,-4,-5,-7,-5,-1,-3,2
46.26201319694519,-1,-2,-4,-6,-3,-2,-3,-2,2
46.26936674118042,0,-1,0,1,0,-1,0,-1,2
46.26937127113342,-2,-1,2,1,2,2,2,2,2
46.2851881980896,1,0,0,0,-1,-1,-1,0,2
46.28519344329834,1,0,-3,0,2,1,2,0,2
46.28642439842224,-1,-1,-2,-4,-3,-2,-2,-1,2
46.28642797470093,1,1,2,5,2,2,-2,-1,2
46.30961322784424,0,-4,-2,-1,-1,-2,-2,-1,2
46.30961775779724,-2,0,-1,-1,-4,-3,0,-1,2
46.31079411506653,0,1,0,-4,-3,0,-1,1,2
46.31079936027527,-2,-3,-5,-6,-7,-7,-3,-4,2
46.32186198234558,0,0,-1,0,1,3,1,-1,2
46.321866273880005,-1,1,2,2,3,1,2,1,2
46.329407691955566,0,1,1,5,4,3,2,0,2
46.32941246032715,1,1,1,1,1,2,2,0,2
46.34522104263306,0,0,1,0,2,-1,-2,1,2
46.34522819519043,-2,-1,-1,-3,-3,-2,-2,-2,2
46.346264123916626,1,0,0,3,2,1,2,-2,2
46.34626746177673,-2,-1,-4,-3,-3,2,-1,-1,2
46.361292362213135,-4,-3,-3,-3,-5,-5,-3,-1,2
46.36129689216614,1,1,1,2,1,1,1,0,2
46.366798877716064,0,1,1,3,1,-1,-1,0,2
46.36680340766907,0,0,0,-2,0,-1,2,1,2
46.38186502456665,1,1,2,4,3,4,2,1,2
46.38187003135681,-3,-2,-3,-3,-3,-3,-5,-2,2
46.38957190513611,-1,-2,-2,-4,-4,-3,0,0,2
46.38957691192627,1,0,0,-1,0,0,0,0,2
46.40494108200073,-1,-1,-1,-2,-3,-1,-2,0,2
46.40494680404663,2,3,2,3,1,-1,-1,-1,2
46.40602421760559,-3,-3,-5,-7,-6,-6,-5,-2,2
46.40602779388428,-2,-1,-3,0,1,1,0,-3,2
46.42117977142334,-2,-1,-1,-6,-5,-1,-1,-2,2
46.421183586120605,-2,-3,-2,-2,-1,0,1,0,2
46.42657232284546,-2,-3,0,0,0,-1,-1,0,2
46.42657518386841,2,4,3,4,2,0,2,-1,2
46.44175457954407,-2,-1,0,3,2,-3,0,0,2
46.441758155822754,2,-1,-2,-3,-3,-1,-1,-2,2
46.44932556152344,1,0,-1,0,1,2,2,2,2
46.4493293762207,-1,0,-1,-1,0,0,2,1,2
46.46546792984009,0,0,2,4,2,2,0,0,2
46.46547341346741,-2,-2,-2,-2,-4,-1,-4,0,2
46.466867208480835,-1,-1,-2,-2,-1,-2,-3,0,2
46.46687197685242,0,-2,0,3,2,0,-1,-1,2
46.48116087913513,-1,-1,-1,-3,-2,2,0,-2,2
46.48116493225098,1,-1,1,2,1,-1,2,-1,2
46.48683309555054,-1,-3,-3,-6,-4,-1,-3,-3,2
46.48683762550354,-2,-2,3,8,0,-3,-2,1,2
46.50193452835083,-2,-1,-2,-5,0,-1,-2,-1,2
46.501938819885254,2,2,-1,-2,3,1,2,0,2
46.50926446914673,-2,-4,-4,-7,-7,-2,-6,-4,2
46.50926876068115,0,-2,-1,-3,-2,-2,-2,0,2
46.52439022064209,-1,2,0,3,2,-1,3,-1,2
46.52439570426941,-1,-2,1,3,1,1,0,-1,2
46.53180551528931,1,0,1,3,1,1,2,1,2
46.53181028366089,-1,-1,-1,-6,-5,-2,-3,-3,2
46.54110789299011,2,2,1,0,2,1,1,-1,2
46.54111170768738,-3,-3,-7,-8,-5,-2,-4,-1,2
46.547034740448,2,2,1,4,2,0,2,0,2
46.547038555145264,0,-2,-2,-2,-4,-2,-3,-2,2
46.56199598312378,3,1,1,2,0,-1,0,0,2
46.56200098991394,-3,-3,-1,-6,-4,-1,-2,-3,2
46.569380044937134,-3,-3,-2,-1,-1,-2,-3,-3,2
46.56938457489014,1,2,0,2,1,2,3,0,2
46.58438563346863,-2,-2,-2,-5,-4,-2,-4,2,2
46.58439040184021,0,-2,-1,2,1,1,-1,1,2
46.59182000160217,-2,-1,0,3,0,0,-2,0,2
46.5918242931366,1,-1,1,1,0,-1,-1,0,2
46.60745978355408,-2,-3,-6,-10,-9,-3,-5,-4,2
46.607465982437134,-1,-2,0,-1,-2,-2,-2,-2,2
46.608503103256226,-1,2,-2,-3,-3,0,0,-1,2
46.60850644111633,-1,0,1,2,3,1,0,2,2
46.62170934677124,0,-2,0,2,3,1,1,-2,2
46.621713161468506,-1,-1,1,2,-1,-2,0,1,2
46.62920022010803,0,0,-1,-2,0,-2,-1,-1,2
46.62920379638672,0,0,-1,-2,-1,1,0,-2,2
46.64410376548767,-4,-1,1,2,0,-2,0,1,2
46.64410758018494,0,-1,0,-1,1,0,2,1,2
46.65165448188782,-2,-1,0,3,1,1,-1,-3,2
46.65165829658508,-1,0,-1,-2,0,-1,-1,2,2
46.66757106781006,3,0,1,3,1,2,0,1,2
46.66757583618164,-2,1,-1,1,-3,-3,0,0,2
46.668689250946045,-4,-3,-5,-3,-1,0,-2,-2,2
46.66869258880615,-3,-3,-4,-4,-4,-1,0,-3,2
46.68256998062134,0,1,0,1,0,0,1,-1,2
46.68257403373718,-1,0,1,-2,-1,-4,0,1,2
46.68928527832031,1,-1,1,2,3,1,1,0,2
46.689288854599,-2,-1,-4,-2,0,-2,-2,-1,2
46.704254150390625,0,-1,0,0,0,-1,0,-1,2
46.70425820350647,0,0,0,-1,-2,-1,-2,0,2
46.71208953857422,0,2,3,3,2,3,4,0,2
46.71209383010864,0,-2,0,0,-2,-1,0,0,2
46.728718280792236,-2,-1,-3,-4,-1,-2,-2,-1,2
46.728724241256714,-1,1,-2,-4,1,3,1,0,2
46.730384349823,0,0,0,-2,-4,-5,-1,-1,2
46.730390548706055,-1,-1,-1,0,0,0,-1,-2,2
46.74168014526367,0,0,2,3,1,0,2,1,2
46.74168372154236,-2,-1,-2,0,3,1,1,-3,2
46.749343156814575,0,-1,-3,-4,-8,-1,-1,1,2
46.74934768676758,0,-1,2,2,1,-2,0,-2,2
46.764708280563354,0,-2,1,1,2,0,0,2,2
46.76471304893494,3,1,1,3,2,3,2,-1,2
46.77185916900635,-2,-2,-3,-1,-2,-2,-1,0,2
46.77186417579651,0,0,-1,-4,-2,0,-2,0,2
46.78749084472656,-1,0,-3,-1,-1,0,0,-2,2
46.787495136260986,-1,-2,-2,-2,-2,-1,-3,-1,2
46.788646936416626,1,1,0,0,1,0,1,1,2
46.78865075111389,1,0,-2,-2,-2,0,-3,-1,2
46.801830768585205,0,-1,-1,-1,-1,-1,0,-1,2
46.80183458328247,-1,0,2,3,3,2,1,1,2
46.80956149101257,-3,-3,-4,-7,-5,-7,-5,-1,2
46.809565782547,2,0,2,2,5,2,3,0,2
46.82455134391785,0,-1,-2,2,-2,-2,1,-1,2
46.82455635070801,0,0,-2,0,-1,0,1,-1,2
46.83202791213989,0,-1,-2,0,3,3,1,-1,2
46.832032918930054,-1,-1,-1,2,2,0,-2,1,2
46.847376108169556,1,0,1,-1,1,0,1,-1,2
46.84738063812256,-3,-3,-2,-2,-3,-4,-2,-2,2
46.8483624458313,1,2,3,2,-1,0,1,0,2
46.84836530685425,0,0,-1,-1,0,1,2,-1,2
46.861790895462036,-5,-3,-4,-4,-5,-2,-6,-1,2
46.86179447174072,-1,-2,-1,-1,-1,0,0,-2,2
46.86932182312012,-3,-1,0,-1,-1,-1,0,-5,2
46.86932635307312,1,-1,1,1,1,0,3,0,2
46.884432792663574,1,0,1,-1,-1,-1,1,1,2
46.884437561035156,0,-1,-2,-1,-1,-2,-1,-2,2
46.89171576499939,-1,0,-1,2,1,0,0,-1,2
46.891719579696655,-2,-3,-4,-3,-1,-1,-1,-3,2
46.90760374069214,0,0,-3,-3,-1,-1,0,-1,2
46.9076087474823,-1,-1,-3,-6,-5,-1,-2,-2,2
46.90866136550903,2,1,2,2,3,2,2,1,2
46.90866565704346,1,-1,-1,0,0,0,-2,-1,2
46.92179584503174,-2,-3,-3,-4,-4,-3,-3,-2,2
46.92180013656616,-2,-4,-1,-3,-3,-3,-3,-2,2
46.92958855628967,1,0,0,2,3,0,0,0,2
46.929593563079834,1,1,-1,-3,-1,-1,2,0,2
46.944841384887695,0,-2,-1,0,-1,0,-2,-1,2
46.94484734535217,-1,0,1,2,0,-1,0,0,2
46.9518301486969,-2,-4,-3,-5,-1,1,-2,1,2
46.951836585998535,0,-1,0,-3,-5,-3,-1,1,2
46.96743083000183,1,0,-2,-1,1,1,1,-3,2
46.967434883117676,0,1,0,1,-2,0,-1,-1,2
46.96841359138489,-1,0,1,2,-1,0,0,-3,2
46.96841645240784,-1,1,1,1,1,0,1,-1,2
46.9837372303009,0,2,-2,0,0,1,1,0,2
46.98374152183533,-2,0,-1,3,1,-1,1,0,2
46.9892840385437,-2,-3,-4,-4,-6,-4,-5,1,2
46.98928904533386,-2,-1,0,-2,-2,0,-1,-2,2
47.00427484512329,0,0,2,3,1,0,-1,-1,2
47.00427961349487,1,1,2,2,3,2,1,0,2
47.01995301246643,-2,-4,-5,-8,-10,-5,-6,-4,2
47.019957304000854,-6,-3,-3,-5,-4,-3,-3,-1,2
47.02747702598572,-1,-1,1,0,-1,0,2,0,2
47.02748131752014,1,2,0,1,3,0,0,1,2
47.028626441955566,4,1,3,5,5,3,3,1,2
47.028632402420044,-4,-6,-6,-5,-7,-5,-7,-4,2
47.042250871658325,0,1,0,2,1,-2,-2,-1,2
47.042256116867065,-3,-1,-2,-7,-2,-2,-3,-1,2
47.04949235916138,1,1,-1,0,0,0,1,1,2
47.04949688911438,1,-1,0,-1,-2,0,1,2,2
47.06439137458801,-1,-2,0,2,0,-2,0,-1,2
47.064396381378174,-1,-6,0,0,-3,-2,-4,-1,2
47.072198152542114,-2,-2,-2,-1,-2,-2,-2,-2,2
47.072203397750854,0,0,-1,-3,-1,1,0,0,2
47.08735632896423,0,-1,-1,-3,-4,0,-2,0,2
47.08736062049866,-3,0,0,0,0,-3,0,0,2
47.08830213546753,-3,0,-2,-1,0,-2,-1,-2,2
47.08830523490906,0,-1,-1,-1,-5,-5,-2,0,2
47.101722955703735,-1,0,-3,-3,0,0,-1,-1,2
47.10172700881958,1,1,0,-1,0,2,4,0,2
47.109248638153076,1,1,1,3,1,0,2,-1,2
47.1092529296875,0,-2,-1,1,1,-2,-1,0,2
47.12639784812927,-4,-3,-2,-5,-3,-2,-5,-3,2
47.12640357017517,-1,1,-3,0,-3,-2,0,1,2
47.13184142112732,1,0,1,1,2,1,2,2,2
47.13184666633606,4,4,3,7,7,2,2,-1,2
47.147441148757935,-6,-7,-9,-16,-17,-10,-10,-5,2
47.1474494934082,-1,-1,-1,-1,-2,-1,1,2,2
47.1484649181366,0,0,-2,0,2,2,3,0,2
47.148467779159546,1,0,0,0,0,2,-1,-2,2
47.16223955154419,4,0,1,5,4,3,3,1,2
47.16224455833435,-1,-2,-2,-1,0,-2,-2,-3,2
47.169745683670044,-3,-2,-2,-2,-3,-3,-3,-1,2
47.16975283622742,-1,-2,0,-2,0,0,1,0,2
47.184234380722046,-1,-1,1,4,0,1,1,0,2
47.184240102767944,-1,-2,-3,-1,-3,-2,-1,-1,2
47.19175124168396,-3,0,-1,-3,1,1,0,0,2
47.19175624847412,-4,-1,-1,-2,-2,-2,0,1,2
47.20739507675171,-1,1,0,1,2,2,0,1,2
47.207399129867554,1,0,0,-2,0,1,1,0,2
47.208380699157715,1,0,1,1,-1,1,-1,-1,2
47.208383083343506,-1,-1,-2,0,-3,-2,-3,-2,2
47.221705198287964,1,3,2,2,2,1,1,1,2
47.22170972824097,0,-1,-2,-4,-2,-2,-4,-3,2
47.22917652130127,-1,-1,-3,-1,0,0,0,1,2
47.22917985916138,-1,0,-2,-3,0,1,0,0,2
47.24427032470703,0,1,1,2,1,0,3,0,2
47.24427509307861,-2,1,-1,-1,1,1,-1,-2,2
47.25163388252258,0,0,1,0,0,0,0,-2,2
47.25163722038269,-4,-3,-4,1,0,-3,-4,0,2
47.26735711097717,1,0,1,0,0,-1,2,-1,2
47.26736092567444,0,-3,-1,0,-3,-1,-4,-1,2
47.26824688911438,1,0,2,2,1,-2,1,0,2
47.26824998855591,-4,-5,-5,-6,-8,-2,-4,-5,2
47.281331062316895,-1,1,1,1,2,0,-1,1,2
47.281333684921265,-1,0,-1,0,0,0,1,1,2
47.28876709938049,0,-2,-3,-4,-2,-2,-2,-1,2
47.28876972198486,1,1,2,3,0,-2,-2,-2,2
47.304094314575195,-3,-1,-3,-1,-2,-1,-2,-2,2
47.30409836769104,-1,-1,-1,-2,-3,-2,-4,-1,2
47.31172442436218,0,0,0,-2,1,1,0,-1,2
47.31172800064087,3,0,1,0,0,2,1,0,2
47.32740569114685,4,3,3,1,1,2,2,1,2
47.327409982681274,-2,-2,1,5,3,0,-2,-3,2
47.32840013504028,-4,-4,-4,-6,-5,-1,-4,-1,2
47.32840275764465,1,3,4,2,2,1,3,1,2
47.34218072891235,-1,-2,-1,-3,-2,-1,0,-2,2
47.342188119888306,1,0,1,3,1,0,3,0,2
47.34940052032471,-2,-2,-3,-2,-4,-3,-4,-1,2
47.34940576553345,-1,0,-1,1,1,0,1,-2,2
47.36453676223755,-2,-1,-2,-2,2,1,0,-1,2
47.36454176902771,-1,-1,-2,-3,-3,-1,1,0,2
47.371827840805054,-1,0,0,4,0,0,0,-1,2
47.37183213233948,-2,-3,-5,-3,-2,0,-1,-1,2
47.38808488845825,-1,1,0,1,-1,-2,-1,-2,2
47.388089656829834,1,1,-1,-3,-2,0,0,-1,2
47.38913035392761,3,2,3,2,1,1,2,2,2
47.389135122299194,1,1,0,1,3,0,-1,-1,2
47.401981592178345,-3,-5,-5,-2,-2,0,-4,-3,2
47.40198636054993,-3,-1,-3,-1,-3,-3,-1,0,2
47.40943741798401,0,0,0,-2,-1,-1,-1,0,2
47.40944218635559,0,1,2,0,1,-1,1,2,2
47.42425084114075,0,-2,0,2,2,-3,0,-1,2
47.42425489425659,3,2,2,2,2,2,0,1,2
47.43119764328003,-2,-4,-5,-4,-2,-1,-1,-1,2
47.43119955062866,0,-1,0,-2,0,2,-1,0,2
47.45600342750549,1,0,-1,-1,-1,-1,0,0,2
47.45600962638855,0,0,2,1,-1,1,2,-2,2
47.457454204559326,-2,-4,0,0,0,-2,-4,-2,2
47.45745825767517,0,-2,-1,-2,-3,-1,-3,-2,2
47.461721658706665,0,1,1,3,1,1,0,0,2
47.46172571182251,-3,-3,-4,-8,-5,-2,-3,-2,2
47.4692645072937,-1,-1,-2,-3,-2,1,-1,1,2
47.469268798828125,0,-1,0,1,1,0,0,3,2
47.484198808670044,-2,-4,-3,-3,-5,-5,-4,-3,2
47.48420238494873,0,1,1,1,3,2,2,0,2
47.491700887680054,1,0,1,4,1,-2,0,-3,2
47.49170470237732,4,2,1,2,2,2,2,0,2
47.50676083564758,-2,-3,-4,-4,-1,-1,-2,-2,2
47.50676488876343,-3,-3,-3,-3,-1,-2,0,0,2
47.515196561813354,1,2,3,0,-2,2,0,-1,2
47.51520085334778,-1,0,-1,0,-2,0,-2,1,2
47.5303258895874,1,1,2,0,2,3,-1,2,2
47.5303316116333,0,-1,-1,-2,-2,1,0,0,2
47.53169584274292,0,-1,-3,-1,-1,0,1,-4,2
47.53170037269592,-2,-1,-2,-4,-2,0,-1,-1,2
47.54476618766785,-1,1,-1,3,1,1,-1,2,2
47.544771671295166,0,-1,-2,-1,0,1,-2,-1,2
47.55192494392395,-1,-1,0,0,-4,-4,-2,-1,2
47.55193018913269,-3,-3,-2,-1,-2,-1,-1,-1,2
47.575647592544556,-2,0,0,1,0,1,1,1,2
47.57565450668335,-1,-4,-6,-6,-2,-4,-5,-2,2
47.577362298965454,0,2,0,3,2,2,1,1,2
47.57736897468567,0,-2,-2,-4,-2,-3,-1,-3,2
47.58988571166992,-1,-1,-2,-3,-3,0,-1,0,2
47.58988952636719,2,2,2,3,2,1,1,-2,2
47.59081745147705,1,-2,1,0,0,-1,1,-1,2
47.59082055091858,-2,-1,-4,-3,-5,-3,-2,-2,2
47.6043267250061,1,0,1,2,2,1,0,2,2
47.604331493377686,-2,0,1,1,0,0,0,-1,2
47.61182928085327,-4,-5,-5,-6,-3,-3,-3,-3,2
47.611833810806274,-5,-3,-3,-3,-5,-3,-5,0,2
47.6267147064209,0,-1,0,-1,-3,-1,1,0,2
47.62671899795532,0,0,1,2,3,3,-1,0,2
47.6350474357605,3,2,3,9,6,1,2,0,2
47.63505220413208,0,0,-2,-1,-1,-1,1,-2,2
47.65004634857178,-1,-1,-2,-4,-7,-5,-5,-3,2
47.6500506401062,-1,-2,-2,-5,-4,-2,0,2,2
47.65103888511658,0,2,1,1,1,3,2,-1,2
47.651041746139526,2,-1,-1,1,3,1,-1,1,2
47.663729667663574,-1,-2,-1,-2,-2,-2,-3,-2,2
47.66373133659363,0,1,2,1,3,0,1,1,2
47.67185664176941,-2,0,-3,-2,-1,0,-3,1,2
47.67186117172241,-1,-1,0,1,-1,0,-1,-2,2
47.686840534210205,0,2,1,1,3,2,2,1,2
47.68684530258179,-5,-4,-5,-7,-6,-4,-6,-4,2
47.69517922401428,0,0,0,1,-1,-2,-2,-1,2
47.695183992385864,-2,-2,-2,-2,-2,-3,-1,1,2
47.71020841598511,-1,0,1,3,4,2,1,1,2
47.71021389961243,-1,2,2,2,2,2,2,-1,2
47.71131420135498,1,0,2,1,-1,0,-1,0,2
47.71131777763367,0,0,-1,-3,0,1,0,-1,2
47.73266077041626,-1,-1,0,-1,-1,0,1,-1,2
47.732666969299316,0,-1,-1,0,-1,-1,-1,0,2
47.73361921310425,-1,-2,1,-2,0,0,0,0,2
47.733623027801514,1,1,0,3,2,0,0,1,2
47.747028827667236,-2,-1,-3,-6,-3,-5,-3,-3,2
47.74703407287598,1,0,-1,0,0,-1,0,1,2
47.75443959236145,-3,-4,-4,-6,-3,-1,-2,-2,2
47.75444197654724,-2,-2,-1,0,-4,-3,-2,-1,2
47.77029728889465,-1,0,-2,0,-1,-1,1,-2,2
47.77030324935913,1,3,1,3,4,1,1,0,2
47.77171468734741,-4,-2,-3,-6,-3,-3,-3,-4,2
47.771718978881836,2,2,1,-2,-1,0,2,-2,2
47.784326791763306,0,-1,-2,0,0,0,-2,-3,2
47.78433179855347,0,0,0,0,-4,-1,0,-1,2
47.79219079017639,-1,-1,-2,-1,-4,-2,-1,2,2
47.79219722747803,-1,-1,0,-2,0,1,-1,-1,2
47.806976318359375,2,2,-1,2,0,1,-1,1,2
47.806981563568115,-4,-5,-6,-9,-9,-6,-5,-3,2
47.81540036201477,-2,3,-1,4,4,1,2,1,2
47.81540608406067,-3,-3,-2,-6,-6,-2,-5,-2,2
47.83044981956482,2,-1,-1,1,2,2,4,3,2
47.830456018447876,2,0,1,1,2,2,1,-1,2
47.831698417663574,1,0,-2,-1,-5,-1,-2,-3,2
47.831702709198,-2,-1,-1,1,2,-2,0,0,2
47.84423613548279,-5,-4,-3,-3,-2,1,-2,-4,2
47.84424066543579,-1,-1,0,-2,-3,0,-1,0,2
47.85182499885559,1,1,0,2,0,0,1,0,2
47.851829528808594,-1,-1,-2,0,-1,-2,-2,1,2
47.867183208465576,-2,-2,-1,-2,-3,-1,-1,-1,2
47.867188692092896,2,0,1,2,2,0,0,0,2
47.87530016899109,1,1,1,-1,-1,0,2,1,2
47.87530517578125,-2,-3,-3,1,-2,-2,-2,-2,2
47.88955235481262,-1,-1,-1,-6,-6,-4,-2,-1,2
47.88955521583557,1,0,-1,1,1,-1,2,0,2
47.89027667045593,0,0,-1,-2,0,-1,-1,-1,2
47.890278577804565,-5,-5,-5,-9,-5,-4,-6,-2,2
47.90508532524109,-1,-1,0,2,1,1,0,0,2
47.9050874710083,-1,-1,-1,0,0,1,-1,0,2
47.911869287490845,2,0,1,0,0,1,2,0,2
47.91187500953674,3,-1,0,3,-1,1,2,-1,2
47.926796436309814,-1,-1,-2,-3,-4,-2,-2,0,2
47.926801443099976,-3,1,-1,0,-3,1,0,1,2
47.934924364089966,-1,-2,-2,1,1,0,0,-1,2
47.93492770195007,2,3,0,1,3,2,2,-1,2
47.950305700302124,-1,-3,-4,-4,-2,-2,-1,-3,2
47.95031023025513,-2,-2,-2,-1,-4,-3,-2,-4,2
47.95129060745239,0,0,1,0,1,1,-2,-2,2
47.9512939453125,2,2,1,0,0,3,2,3,2
47.96464943885803,3,3,5,10,6,3,2,-1,2
47.96465516090393,-5,-5,-9,-10,-7,-4,-6,-6,2
47.971723556518555,-4,-2,-2,-3,-2,-3,-3,-2,2
47.97172713279724,1,0,2,0,2,1,3,1,2
47.98683834075928,-1,1,1,4,3,-1,0,-1,2
47.98684358596802,1,-1,1,2,2,0,2,2,2
47.99501156806946,-1,-2,-1,-2,-3,-2,-2,-3,2
47.99501585960388,-1,0,0,-2,1,1,1,-2,2
48.01038217544556,2,2,1,3,1,-2,2,2,2
48.01038861274719,-3,-2,-4,-7,-5,-2,-6,-4,2
48.011762857437134,-3,-5,-2,-2,0,-2,-1,1,2
48.01176714897156,1,0,0,3,3,3,2,0,2
48.02438282966614,2,-1,-2,0,-1,-1,0,-1,2
48.0243878364563,2,1,0,2,1,-1,-1,-1,2
48.03192186355591,0,-1,-1,1,0,0,0,0,2
48.03192591667175,0,1,-1,-1,-4,-1,0,-3,2
48.04675006866455,-2,-2,-2,-1,2,0,-3,-1,2
48.046754121780396,-2,-1,1,-2,-1,-1,1,-1,2
48.05500674247742,0,0,-1,-1,-1,1,0,-1,2
48.05501079559326,-1,-1,-1,1,0,-2,-2,-1,2
48.07005548477173,1,3,1,-1,-2,-1,0,3,2
48.07006049156189,-2,-2,1,2,2,0,1,0,2
48.07174324989319,-5,-2,-6,-11,-6,-4,-6,-2,2
48.07174849510193,2,0,4,3,4,3,3,0,2
48.0842444896698,0,0,-2,1,-1,-1,0,0,2
48.084248065948486,2,0,2,3,1,-1,-1,0,2
48.09174966812134,-1,1,0,4,2,1,3,0,2
48.0917534828186,-1,-1,-3,-3,-4,-3,-4,-3,2
48.10707068443298,-1,-1,0,-3,-2,1,0,-1,2
48.107075452804565,-1,-1,-2,0,3,0,-1,-3,2
48.11457324028015,-2,-3,-4,-4,-5,-2,-2,-2,2
48.11457657814026,-2,-3,-2,-2,-2,-1,-1,1,2
48.13008999824524,-2,-1,0,-2,0,-1,-1,0,2
48.13009285926819,3,1,2,3,1,2,4,0,2
48.13080024719238,1,1,0,0,1,1,1,-2,2
48.13080334663391,0,-2,-1,4,4,-1,-2,0,2
48.143768548965454,-2,-4,-5,-7,-5,-2,-4,-3,2
48.14377164840698,-3,-3,-4,-4,-4,0,-2,0,2
48.15123677253723,0,0,1,1,1,-2,1,0,2
48.15123987197876,-2,0,0,-1,-3,1,1,-1,2
48.16619873046875,1,0,0,3,2,-1,-1,0,2
48.16620111465454,-1,-1,-1,2,0,1,0,1,2
48.174870014190674,1,1,0,0,-3,0,0,-2,2
48.1748731136322,1,-1,-1,0,0,1,0,0,2
48.189621925354004,-3,-1,0,-2,-4,-2,-1,-3,2
48.18962502479553,-2,-2,-2,-4,-5,-2,-5,0,2
48.19026184082031,0,0,2,3,2,0,1,0,2
48.1902642250061,1,1,0,1,0,-1,2,-1,2
48.20391273498535,-2,-3,-4,-3,2,1,0,-1,2
48.20391511917114,-1,0,-1,-4,-6,-6,-3,0,2
48.21132683753967,1,1,1,3,2,1,-1,2,2
48.2113299369812,2,1,0,0,2,2,2,-1,2
48.22690534591675,-3,-4,-3,-3,-3,-2,-6,-4,2
48.22690987586975,-3,-1,3,1,1,1,1,1,2
48.234928131103516,-1,-1,-1,-1,0,-1,0,-2,2
48.23493194580078,-1,0,0,1,-1,-2,-2,-1,2
48.249940395355225,2,3,3,5,3,2,4,3,2
48.24994397163391,1,0,-1,0,0,-1,-2,-3,2
48.250858783721924,-3,-3,-4,-5,-6,-3,-5,-1,2
48.250861167907715,-3,0,0,0,-2,0,-2,-1,2
48.26423668861389,0,-2,0,-3,-2,-1,0,-2,2
48.26424241065979,0,0,1,0,-1,0,2,2,2
48.271723985672,0,0,1,3,3,3,0,1,2
48.271727561950684,0,-2,-1,-1,0,-1,0,-4,2
48.286749601364136,-5,-6,-8,-9,-11,-9,-10,-5,2
48.28675436973572,-1,1,2,3,3,2,3,1,2
48.2949435710907,3,0,0,1,-1,-1,0,-2,2
48.294947147369385,-1,0,1,1,2,1,1,1,2
48.310168981552124,2,1,3,4,2,2,3,-1,2
48.310174226760864,-5,-4,-5,-7,-5,-4,-5,-3,2
48.31163477897644,-1,0,-1,2,1,-1,2,2,2
48.31163930892944,-1,0,-3,-5,-4,-2,-5,-2,2
48.32424235343933,-1,-2,-3,-4,-3,-2,-3,2,2
48.324246644973755,1,2,1,2,-1,0,0,-4,2
48.33219766616821,1,1,1,2,5,2,0,0,2
48.33220338821411,-2,0,-1,-1,-3,-3,-1,-1,2
48.35602855682373,-2,-3,-3,-5,-4,-2,-4,-1,2
48.35603404045105,2,2,0,4,2,0,3,-1,2
48.357182264328,-2,-2,-1,-4,-3,-2,0,-1,2
48.35718750953674,0,-2,-1,0,-1,0,-1,-2,2
48.36998534202576,0,0,2,1,1,3,1,-1,2
48.369988441467285,0,1,-1,-1,0,1,0,-1,2
48.370441198349,-1,0,0,3,-1,-3,-1,-2,2
48.370442390441895,-2,-3,-4,-4,-5,-3,-2,1,2
48.384247064590454,-1,0,1,3,3,3,3,2,2
48.38427686691284,-2,-3,-2,-5,-2,0,-1,-2,2
48.39230132102966,2,1,2,1,0,0,1,0,2
48.3923065662384,-2,-1,-2,-3,-2,-4,1,-1,2
48.40672755241394,1,2,0,2,2,1,0,1,2
48.406731843948364,3,2,1,3,4,3,1,2,2
48.415170192718506,-3,-2,-2,-4,-6,-1,-4,-3,2
48.41517472267151,-1,-2,-3,-2,-2,-3,-3,-2,2
48.42950892448425,0,0,1,-1,-2,0,0,1,2
48.42951464653015,-3,-1,-1,2,5,2,-1,0,2
48.44717812538147,0,-1,0,-2,-1,2,2,-1,2
48.44718384742737,-1,-1,-2,-1,-2,-1,-3,-1,2
48.450244665145874,1,1,0,1,-1,-1,0,-1,2
48.45025014877319,-2,-1,-1,1,2,-1,-1,0,2
48.4517765045166,-2,-2,-2,-4,-4,-1,-5,0,2
48.45177984237671,1,-1,3,3,2,2,1,-1,2
48.46688914299011,0,-3,-4,-4,-3,-1,-3,-4,2
48.466893434524536,0,-1,2,4,0,-1,1,0,2
48.47483158111572,0,-1,-2,-1,-1,0,0,-2,2
48.47483468055725,-2,-1,-3,-3,-6,-4,-2,-2,2
48.48931574821472,0,1,2,3,5,1,2,2,2
48.48931932449341,2,0,-1,1,0,-1,-2,-1,2
48.49747824668884,-2,-3,-4,-5,-7,-4,-3,-2,2
48.49748206138611,3,1,2,2,3,2,1,-1,2
48.512394428253174,-1,-2,-4,-5,-3,-5,-1,-3,2
48.51239824295044,1,2,1,2,2,1,4,-1,2
48.513453006744385,-3,-4,-3,-3,1,1,0,-1,2
48.51345658302307,-1,0,0,2,-2,0,1,0,2
48.52685761451721,0,2,0,2,-2,-2,1,1,2
48.52686333656311,0,0,0,1,1,2,-1,0,2
48.53528690338135,-1,0,0,-4,-2,-3,0,-1,2
48.53529238700867,1,1,0,1,2,1,-1,0,2
48.55836725234985,-5,-6,-5,-6,-5,-2,-3,-4,2
48.558372259140015,0,-1,0,3,-1,0,1,2,2
48.55990958213806,1,0,-1,1,-1,1,1,0,2
48.55991506576538,0,0,1,2,3,-1,2,1,2
48.57264494895935,0,0,1,-1,-1,-1,-2,-4,2
48.57265043258667,-2,-2,-3,-7,-7,-3,-6,-1,2
48.57426142692566,0,0,3,4,3,2,2,0,2
48.574265480041504,-2,-2,-2,-3,-4,-5,-1,-2,2
48.58681392669678,1,2,4,5,5,4,4,2,2
48.5868182182312,-2,-2,-5,-8,-7,-4,-3,-5,2
48.59506297111511,0,1,-1,-1,0,0,-2,0,2
48.59506821632385,1,1,3,2,1,2,2,2,2
48.609070777893066,0,-1,0,2,0,1,0,-1,2
48.60907506942749,1,-1,-1,1,-1,0,0,0,2
48.61788296699524,-1,-1,-1,0,-2,-1,0,-1,2
48.61788725852966,-1,-2,-3,0,-2,-1,0,-1,2
48.63269805908203,2,2,-1,2,3,1,3,1,2
48.63270282745361,-2,-4,-4,-7,-5,-3,-4,-4,2
48.63384413719177,-1,0,-1,-2,-1,-3,-1,0,2
48.63384819030762,-2,-2,-1,0,0,2,-1,-2,2
48.6469566822052,-2,-1,0,2,-1,0,0,0,2
48.6469612121582,0,0,2,3,4,0,1,1,2
48.65501594543457,0,-1,0,1,1,1,-1,0,2
48.655020236968994,-1,-2,-1,-4,-1,0,-2,-1,2
48.66936016082764,0,-2,-1,-3,-4,-2,1,-1,2
48.66936469078064,0,-2,-2,-2,-5,-2,-2,-1,2
48.67752957344055,-1,-2,0,-1,-3,-3,-4,0,2
48.6775336265564,0,-1,1,1,3,3,1,1,2
48.69258451461792,-1,0,0,3,6,1,-1,1,2
48.69258952140808,0,-1,-2,-5,-1,-1,-2,-2,2
48.69378685951233,-1,0,-2,0,-1,0,-1,-2,2
48.693790912628174,-1,0,-1,-3,-7,-3,0,0,2
48.7067551612854,-1,0,1,4,3,1,1,-2,2
48.706759452819824,-1,-1,-1,-2,-3,0,2,1,2
48.71560978889465,1,2,1,4,3,4,1,0,2
48.7156138420105,0,-1,-2,0,0,1,-1,-3,2
48.729355335235596,-2,-3,-3,-4,-4,-1,-4,-2,2
48.72936034202576,1,1,1,1,-1,1,0,0,2
48.73771667480469,-1,-2,-2,-2,0,-1,-2,0,2
48.73772168159485,-1,0,0,-1,1,-2,0,-1,2
48.752333641052246,3,2,-1,1,-2,-1,0,0,2
48.75233793258667,-3,-1,-3,-1,1,-2,-2,-2,2
48.753289222717285,-1,-1,-2,-3,-3,-2,0,0,2
48.75329327583313,-3,-3,-2,-4,-2,-2,-3,-2,2
48.76719641685486,-1,1,0,-1,-2,-1,0,0,2
48.767202615737915,0,-1,2,2,0,3,2,0,2
48.77490234375,2,3,1,2,1,0,1,-1,2
48.774906873703,1,0,-1,-2,0,-2,-1,-3,2
48.7894127368927,1,-1,-2,1,-2,-3,-1,-1,2
48.78941798210144,-3,-3,-5,-6,-7,-6,-7,-2,2
48.79750084877014,-3,-2,-4,-8,-6,-1,0,-2,2
48.79750633239746,0,2,2,-1,-1,2,0,1,2
48.812644720077515,0,1,1,5,5,1,2,1,2
48.81265091896057,2,2,-2,3,2,0,2,0,2
48.8141770362854,-1,-2,-4,-3,0,-1,-1,-2,2
48.814183712005615,0,0,-2,-4,-8,-2,-3,1,2
48.82736301422119,0,-1,-1,-5,-2,-2,0,1,2
48.827367544174194,-1,1,1,3,3,2,1,1,2
48.83511447906494,-2,1,1,3,2,2,2,-1,2
48.8351194858551,0,-2,-2,0,-1,-1,0,-1,2
48.84954762458801,-3,-4,-3,-3,-2,-1,-3,-4,2
48.84955286979675,0,1,0,-2,-1,0,-1,-1,2
48.85744857788086,1,-3,-1,-1,-4,-3,-2,0,2
48.857452154159546,-1,-2,-3,1,4,0,-1,1,2
48.87238144874573,1,1,0,-1,0,0,0,1,2
48.872385025024414,-1,-2,-1,-2,-3,1,0,-2,2
48.87337565422058,-2,-2,-1,1,3,-1,-3,-1,2
48.87337851524353,2,2,2,6,2,1,2,0,2
48.886781454086304,-1,-2,-4,-3,-3,-3,-2,-3,2
48.88678598403931,-2,-1,-2,1,-1,-2,-1,-1,2
48.89499044418335,1,1,-1,1,2,1,4,0,2
48.894994258880615,-1,1,2,2,3,1,1,0,2
48.90940499305725,-1,-1,-3,-5,-4,-1,-2,-3,2
48.90940999984741,-1,-3,-3,-2,-4,-2,-2,-1,2
48.91723132133484,-2,-2,-2,0,-2,-3,-2,-2,2
48.917234897613525,0,1,-1,-2,0,-1,-1,2,2
48.931983947753906,2,4,4,1,1,2,-1,0,2
48.93198752403259,1,0,1,3,1,2,0,-2,2
48.93266296386719,-3,-4,-4,-10,-8,-5,-5,-4,2
48.93266415596008,-1,-2,-5,-4,-4,-2,0,0,2
48.94682574272156,-2,-1,-1,-2,-3,-2,-3,0,2
48.94683027267456,0,0,1,3,3,2,2,1,2
48.9550507068634,1,-1,0,-1,-4,-1,-2,0,2
48.95505499839783,-2,-3,-2,-3,-3,-4,-2,-4,2
48.969388008117676,1,-1,0,0,0,2,2,2,2
48.96939301490784,-1,-1,-1,-1,1,-1,-1,-1,2
48.97769331932068,-1,0,3,3,1,1,0,0,2
48.97769784927368,-2,0,-2,-3,-3,0,-3,-2,2
48.99249815940857,-2,-3,-2,-1,-4,-3,-2,-1,2
48.99250245094299,-2,-1,-1,-1,-1,1,1,-1,2
48.99359130859375,1,-2,-2,-3,-2,-3,-3,-2,2
48.99359679222107,2,2,1,5,3,2,3,1,2
49.00721621513367,-1,-1,-3,-4,-1,-3,-1,-1,2
49.00722098350525,0,0,-3,-6,-5,-3,-1,1,2
49.015578269958496,-2,1,-1,4,3,3,2,0,2
49.01558184623718,-2,-1,-2,-6,-6,-4,-5,-2,2
49.029322385787964,-2,-1,-2,2,-1,-1,0,-1,2
49.02932596206665,1,-1,1,2,1,0,-1,2,2
49.03792428970337,1,2,1,3,0,2,3,0,2
49.03792929649353,1,-2,1,2,2,0,2,-1,2
49.05248785018921,-3,-3,-2,-2,-1,-3,-2,-1,2
49.05249333381653,-2,-3,-6,-7,-3,-2,-3,-4,2
49.053516149520874,-1,0,0,-2,-2,-2,0,-1,2
49.0535192489624,-1,-3,-1,3,1,0,-2,-1,2
49.066956520080566,3,2,2,3,0,2,3,1,2
49.06696128845215,1,0,2,5,5,3,1,-1,2
49.07498121261597,-1,-3,-3,-7,-3,-4,-4,-3,2
49.07498502731323,-3,0,-5,-3,-4,-2,-1,0,2
49.0893235206604,0,-1,1,-1,1,1,0,1,2
49.089327573776245,0,2,1,-1,-2,1,4,2,2
49.097517013549805,2,2,2,5,3,3,3,0,2
49.09752082824707,0,-1,0,1,1,-1,0,-4,2
49.11246418952942,-2,-2,-1,-3,-6,-4,-2,1,2
49.11246848106384,0,0,2,1,0,1,2,0,2
49.11352801322937,0,0,1,-2,1,0,-2,0,2
49.1135311126709,0,0,1,2,2,1,2,-1,2
49.126853704452515,1,-1,1,-1,-1,0,0,0,2
49.126858711242676,-1,-3,-2,-3,-2,-3,-2,-2,2
49.13503956794739,-2,1,-2,3,-2,-2,-1,2,2
49.13504457473755,0,0,1,3,1,0,2,-2,2
49.14952111244202,-1,0,-3,-4,-4,-4,-4,-5,2
49.14952540397644,-2,-3,-6,-4,-5,-3,-1,-2,2
49.15760278701782,-2,-1,-1,-4,-4,-4,-2,-2,2
49.157607078552246,-1,0,-2,-3,0,2,2,-1,2
49.17292618751526,1,0,1,3,4,2,2,-1,2
49.17293119430542,1,-1,2,2,4,-2,2,2,2
49.17398190498352,0,-2,-2,-1,1,0,-3,-1,2
49.17398476600647,-2,-2,-2,-3,-4,0,-3,-1,2
49.18697953224182,-3,-1,-2,-4,-2,-3,-2,-4,2
49.1869843006134,-2,0,1,0,-3,-1,-2,-1,2
49.195075035095215,-2,-1,-1,0,-1,1,1,0,2
49.19507908821106,0,-2,-1,-4,-6,-2,0,0,2
49.209466218948364,0,0,-1,0,2,1,3,0,2
49.20947289466858,-2,-1,-2,-3,2,-3,-1,-3,2
49.21715044975281,1,-1,-1,0,0,0,1,2,2
49.217154026031494,-1,1,2,6,5,1,0,-1,2
49.24071764945984,-1,-2,-4,-4,-5,-2,-4,-2,2
49.24072241783142,1,0,0,-2,-1,0,-1,-1,2
49.24172616004944,0,-1,-2,1,2,2,0,2,2
49.24172925949097,-1,-1,0,-2,-1,-1,0,1,2
49.248525857925415,-1,0,1,0,2,3,0,-3,2
49.248528480529785,-2,-2,-2,-3,-5,-4,-4,-1,2
49.25447750091553,0,0,0,-1,1,2,2,1,2
49.25448036193848,1,0,-1,0,-3,0,0,2,2
49.269402503967285,-1,-2,0,5,1,-1,1,0,2
49.269407510757446,-2,-1,0,-1,-1,2,-1,-3,2
49.277443170547485,-2,-2,-3,-5,-4,-3,-4,-2,2
49.27744770050049,-1,-3,-3,-3,3,-4,-5,-3,2
49.29268193244934,0,3,-2,-3,-1,2,1,1,2
49.29268670082092,2,0,-1,-2,-3,-1,0,-2,2
49.29397630691528,0,1,1,1,0,-1,0,0,2
49.29397988319397,-2,0,-1,-3,-3,-2,-2,-1,2
49.30638813972473,-1,-1,-1,2,2,-2,-3,-2,2
49.3063907623291,1,0,0,-4,-3,-2,-2,0,2
49.314640522003174,1,-1,0,1,-1,0,1,-1,2
49.314643144607544,1,-2,-1,-4,-3,-2,-1,0,2
49.32959461212158,-2,-1,1,2,3,0,1,0,2
49.32959747314453,0,2,1,4,4,2,2,1,2
49.33711767196655,0,-3,-5,-3,-3,-2,-3,-2,2
49.33712100982666,-1,-2,-2,-2,-1,-4,-1,1,2
49.36095929145813,-1,-3,-2,-5,-6,-3,-1,0,2
49.36096453666687,-5,-2,-3,-4,-2,-2,-4,0,2
49.36227083206177,1,2,1,3,2,1,0,1,2
49.362274169921875,-2,1,0,1,1,1,1,-2,2
49.367679834365845,-1,-2,0,-3,-3,0,0,-2,2
49.36768674850464,2,0,0,4,2,0,2,0,2
49.374306201934814,-1,-4,-3,-4,-1,-1,-3,-2,2
49.37431001663208,-1,-2,-1,-3,-5,-3,1,0,2
49.39813494682312,-1,1,-1,2,-1,1,1,3,2
49.398138999938965,1,-1,1,2,5,1,2,-3,2
49.39912414550781,-2,-2,-1,-1,-2,-2,-2,-1,2
49.39912724494934,-2,-4,-3,-5,-3,-3,-4,-3,2
49.4120512008667,-1,1,1,-1,-3,1,-1,-2,2
49.41205716133118,2,2,1,4,0,1,3,1,2
49.42136025428772,0,2,2,4,4,2,2,-1,2
49.421364545822144,-4,-5,-7,-12,-9,-5,-8,-4,2
49.43539357185364,0,0,2,0,0,-2,0,-1,2
49.43539810180664,-4,0,-2,0,-1,-2,-1,0,2
49.43647766113281,3,2,5,1,0,1,2,0,2
49.43648099899292,-1,-2,-2,2,0,1,1,-1,2
49.44996476173401,-1,-3,-3,-2,-2,-1,-1,-2,2
49.44997000694275,-2,-1,-1,1,0,0,0,0,2
49.45758295059204,-2,-2,-1,-2,0,-3,-4,-1,2
49.45758819580078,2,2,3,4,3,2,2,1,2
49.4717960357666,2,0,0,0,0,0,0,0,2
49.471800327301025,-1,-1,-2,-4,-5,-2,-2,-2,2
49.48007082939148,0,-1,0,0,0,0,1,-1,2
49.4800751209259,4,2,3,4,2,2,0,2,2
49.494993925094604,-3,-3,-5,-1,0,-2,-4,-3,2
49.49499821662903,0,0,0,-3,-1,3,1,1,2
49.49608612060547,-5,-1,-3,-6,-6,-7,-3,-1,2
49.496089458465576,3,2,1,1,0,0,2,0,2
49.509392499923706,-1,1,1,-1,2,0,1,1,2
49.50939679145813,0,-2,-2,0,1,0,-4,-3,2
49.51762270927429,-1,0,-1,0,1,1,0,-1,2
49.51762676239014,0,0,0,3,2,2,3,1,2
49.53164052963257,0,1,-1,-2,-3,-1,1,-1,2
49.5316436290741,-3,-3,-2,-5,-3,-3,-1,0,2
49.540446043014526,1,2,0,0,0,1,1,1,2
49.54045128822327,-2,-2,-4,-4,-4,-3,-4,-1,2
49.55492925643921,0,1,1,0,0,0,1,0,2
49.55493378639221,-4,-2,-5,-6,-3,-1,-4,-3,2
49.556023359298706,1,2,3,7,4,2,1,-1,2
49.556026220321655,-2,-4,-3,-5,-4,-5,-2,-4,2
49.56940770149231,-1,-3,-2,-1,-5,-3,-4,1,2
49.56941246986389,2,1,2,3,3,-1,2,1,2
49.57790184020996,0,0,-3,-3,-2,1,0,0,2
49.57790803909302,1,2,1,3,3,2,0,-1,2
49.59129524230957,-1,-1,-2,-1,0,0,-1,-1,2
49.59129810333252,4,2,3,4,0,-2,1,-2,2
49.60066246986389,-1,-3,-2,-3,-3,-2,-4,-3,2
49.60066843032837,-3,-2,-2,-3,-3,-1,-1,-1,2
49.61534142494202,0,-1,-1,0,0,1,-1,-1,2
49.61534762382507,0,0,1,0,0,0,-1,0,2
49.61707615852356,1,0,0,1,2,-1,1,1,2
49.6170814037323,0,-2,-1,0,0,0,1,0,2
49.62948656082153,-1,-2,-1,-4,-2,0,-2,-1,2
49.6294903755188,-1,-1,-3,-1,-2,-1,0,1,2
49.63761234283447,-1,1,-1,0,-1,0,1,0,2
49.63761806488037,1,1,-1,0,4,3,3,0,2
49.653682231903076,-3,-2,-3,-5,-5,-4,-5,-5,2
49.65368700027466,-1,0,2,4,1,-1,0,3,2
49.66029977798462,-1,-1,2,0,1,2,1,2,2
49.66030406951904,-1,0,-2,-5,-4,-4,-3,-3,2
49.67504024505615,2,1,0,0,4,3,2,-2,2
49.675044536590576,-1,-1,-2,-3,-3,-1,-3,-4,2
49.67608022689819,-2,-4,-1,-3,-4,-2,-2,-2,2
49.67608332633972,0,1,3,3,3,1,1,3,2
49.69033980369568,0,-2,-1,1,-2,-2,1,3,2
49.69034695625305,0,-1,-2,-2,-3,-1,-2,-1,2
49.697420835494995,0,0,-1,1,1,1,2,1,2
49.69742512702942,0,3,0,1,2,0,0,-1,2
49.71185111999512,-1,0,0,2,-3,-2,-3,-1,2
49.71185517311096,-3,-4,-4,-4,-2,-3,-1,-2,2
49.71992325782776,-5,-5,-7,-8,-6,-5,-7,-4,2
49.719927072525024,0,-1,-1,-1,0,-1,-1,2,2
49.737663984298706,1,2,2,0,0,2,2,0,2
49.73766851425171,1,2,2,3,1,2,5,1,2
49.738863468170166,-2,0,-2,-1,1,0,-1,-1,2
49.738866567611694,-3,-1,-2,-2,-3,-4,-4,-2,2
49.74924826622009,0,1,1,2,3,1,2,0,2
49.7492516040802,0,0,0,-5,-3,-2,-3,3,2
49.757445335388184,0,1,2,4,3,0,2,0,2
49.75744915008545,0,0,0,-4,-4,-4,-3,-2,2
49.77165937423706,-3,-1,-4,-2,1,1,-2,-2,2
49.77166223526001,-2,1,-1,-1,-3,-1,1,0,2
49.78755521774292,1,1,0,0,0,0,-1,-1,2
49.787559270858765,3,-1,2,0,-3,1,-2,1,2
49.79492378234863,-5,-3,-2,-4,-1,-3,-2,-3,2
49.7949275970459,0,-2,-2,2,2,-1,0,-1,2
49.79583263397217,-1,-1,-1,-1,-1,0,-1,-1,2
49.79583525657654,0,0,0,-1,0,1,1,-1,2
49.80945920944214,3,1,3,3,2,1,0,3,2
49.80946350097656,-4,-2,-3,-6,-3,-1,-5,-1,2
49.81851840019226,-2,-2,0,-3,-4,-2,0,0,2
49.81852316856384,0,1,0,3,3,1,2,0,2
49.83218479156494,-1,-4,-6,-9,-7,-3,-2,-1,2
49.83219003677368,2,-1,-1,0,3,1,1,-3,2
49.839983224868774,1,1,0,0,1,0,0,-3,2
49.83998680114746,-2,-1,0,1,-4,-1,-2,-1,2
49.85529327392578,0,0,-1,1,-1,0,0,1,2
49.85529828071594,1,1,2,4,-1,0,-2,-2,2
49.856765270233154,-4,-6,-5,-9,-9,-5,-8,-4,2
49.85676860809326,-3,-1,0,0,2,1,2,1,2
49.869624853134155,1,2,1,2,1,0,2,0,2
49.86962938308716,-1,0,1,3,1,2,-1,-1,2
49.87760806083679,0,1,-1,0,-2,0,2,2,2
49.877612352371216,-2,-3,-5,-8,-6,-3,-3,-4,2
49.89182162284851,-2,-1,-1,-1,0,-1,-1,-1,2
49.89182662963867,0,-1,-2,-1,1,2,1,-1,2
49.90015912055969,1,1,0,1,1,-1,2,-1,2
49.900163650512695,-2,-2,-4,1,2,0,-1,0,2
49.9151668548584,1,0,3,-1,-2,0,0,1,2
49.9151713848114,-3,-5,-6,-4,-4,-3,-4,-3,2
49.9163932800293,0,-1,-1,0,-1,-1,0,0,2
49.916396617889404,2,2,1,3,3,2,2,-2,2
49.92930340766907,-2,-2,-1,0,-1,0,-1,-2,2
49.92930746078491,-4,-5,-3,-7,-7,-6,-4,-1,2
49.937538146972656,2,0,0,-2,0,0,1,0,2
49.93754267692566,1,-1,2,2,0,2,-1,-1,2
49.95175647735596,0,1,-2,2,0,1,2,1,2
49.951759815216064,1,-1,-1,-1,1,2,0,-1,2
49.960071086883545,-2,-3,-2,-1,-4,-5,-4,0,2
49.96007490158081,-2,-1,-1,1,2,-2,0,1,2
49.974963665008545,1,0,0,0,0,-2,-1,0,2
49.97496771812439,1,0,0,2,1,0,3,1,2
49.97599530220032,0,2,2,2,1,1,0,0,2
49.975998401641846,-1,-2,-3,-2,-2,-1,-1,-4,2
49.98944687843323,-3,-2,-2,-3,-2,1,-1,-3,2
49.98945116996765,0,0,0,-3,-3,-3,-1,1,2
49.99772787094116,0,-1,1,3,2,0,-2,-2,2
49.997732162475586,-3,-2,-1,-2,-4,-1,-4,-4,2
50.011807918548584,-4,-3,-1,-2,1,-1,-3,-1,2
50.01181197166443,1,1,0,1,2,1,0,-2,2
50.02003312110901,-1,2,1,2,1,1,1,-1,2
50.02003788948059,0,-2,-1,1,0,-2,-2,1,2
50.035390853881836,1,0,0,-2,-3,-2,-2,-1,2
50.03539538383484,-1,0,0,1,0,-1,0,-1,2
50.03649020195007,1,1,0,2,6,2,0,-1,2
50.03649353981018,0,-3,-2,-4,-2,-1,-1,-2,2
50.05172419548035,-1,-2,-1,0,1,-2,-1,-2,2
50.05172872543335,-1,0,-1,-1,0,0,-2,1,2
50.059425354003906,0,-1,0,0,0,1,1,0,2
50.05942988395691,0,-1,-1,-3,-1,1,1,-1,2
50.0718047618866,-1,-1,1,3,-1,-1,0,0,2
50.07180905342102,0,-1,-2,-5,-4,-1,-2,-1,2
50.082194566726685,-3,-3,-5,-3,-2,1,-1,-2,2
50.0822012424469,0,0,-2,-2,0,0,-2,-3,2
50.09430003166199,1,-2,1,2,1,-1,-1,0,2
50.09430408477783,1,1,2,5,3,2,-1,-1,2
50.10370397567749,-2,-3,-1,-2,-3,-4,-2,-1,2
50.103707790374756,-1,-1,-3,-8,-3,-1,-1,0,2
50.10873579978943,-1,1,1,0,0,1,0,-2,2
50.1087384223938,-1,-1,-1,-1,-2,0,1,0,2
50.117756366729736,-2,-1,-1,0,-3,-1,-1,0,2
50.117758989334106,1,2,2,5,5,1,2,2,2
50.14073634147644,0,0,-1,-1,-3,-6,-3,-3,2
50.14073991775513,-2,-5,-5,-7,-6,-3,-5,-3,2
50.143017292022705,0,-1,0,2,2,1,3,3,2
50.14302039146423,-1,0,2,2,3,1,0,-2,2
50.15482258796692,-1,-2,-2,-1,-2,0,-2,-1,2
50.154826641082764,0,-2,1,-3,-3,-2,0,1,2
50.164358377456665,-1,-1,1,0,0,1,1,-2,2
50.16436314582825,-2,-3,-4,-4,-4,-6,0,-2,2
50.16973924636841,0,0,-2,0,0,1,1,1,2
50.169742584228516,1,2,3,5,6,2,3,-1,2
50.17798590660095,-5,-5,-7,-16,-15,-10,-10,-4,2
50.1779887676239,0,1,2,2,1,2,1,3,2
50.191627740859985,-1,-1,-1,-1,0,2,1,-1,2
50.191630840301514,0,1,1,3,1,0,1,0,2
50.201754093170166,2,0,2,3,3,1,0,-1,2
50.20175623893738,0,-2,1,1,-1,-1,-1,-2,2
50.21485996246338,-2,-2,-3,-5,-6,-4,-3,-2,2
50.214864015579224,0,-2,-1,1,2,1,2,-1,2
50.231728076934814,1,-1,0,-2,3,-1,2,-1,2
50.23173189163208,1,-2,0,3,0,-1,1,0,2
50.233160972595215,1,-2,-2,-2,-2,-1,1,1,2
50.233166456222534,1,2,4,2,3,0,3,2,2
50.239566802978516,-4,-5,-4,-3,-6,-4,-5,-3,2
50.23957180976868,-2,0,-1,-2,-4,-3,-3,-1,2
50.25193405151367,0,0,2,1,4,2,0,-2,2
50.25193905830383,-4,-3,-4,-4,-4,0,-4,-2,2
50.26139760017395,4,2,2,3,0,1,3,3,2
50.26140213012695,1,2,0,2,2,3,2,1,2
50.274702072143555,-3,-3,-3,-3,-4,-3,-4,-2,2
50.27470850944519,-3,-3,-3,-1,-3,-4,-2,-3,2
50.28668999671936,-3,-2,-1,-1,2,2,-1,0,2
50.28669595718384,-2,-1,-1,1,-2,0,0,1,2
50.28977346420288,1,2,1,3,1,0,2,0,2
50.28977918624878,-2,-2,-2,-1,0,1,-1,-2,2
50.29769968986511,2,1,-1,0,-3,-2,0,-1,2
50.29770255088806,-2,-1,-2,-6,0,-1,-1,-2,2
50.3122079372406,1,1,2,3,2,2,1,2,2
50.31221342086792,3,1,0,2,2,-1,0,-1,2
50.32112002372742,0,-1,-1,-3,-3,-3,-4,-2,2
50.32112407684326,-3,-3,0,-1,-1,-1,-1,2,2
50.343167543411255,-2,0,-1,1,0,-1,-1,0,2
50.34317207336426,0,1,-1,0,-3,-1,0,-3,2
50.34554862976074,3,1,2,3,5,3,3,0,2
50.34555196762085,1,1,-2,0,-4,-3,-1,-3,2
50.34931993484497,-7,-6,-6,-9,-8,-6,-6,-4,2
50.34932351112366,-2,-2,-2,-2,-2,0,-1,0,2
50.35896849632263,-2,1,-1,0,2,1,3,1,2
50.358973026275635,2,-1,0,-1,-3,0,2,-2,2
50.37182402610779,1,-1,-3,-2,0,0,0,-2,2
50.37182831764221,-2,-2,-2,-4,-6,-4,-1,-2,2
50.38144254684448,-1,-2,0,-2,0,0,-1,-1,2
50.381446838378906,-2,0,1,1,-1,-1,-1,1,2
50.395761489868164,0,1,0,0,1,-1,0,-3,2
50.39576768875122,0,0,0,1,3,0,0,0,2
50.40443730354309,-1,0,-3,-2,-1,-1,-1,-1,2
50.40444231033325,0,-3,-3,-1,0,1,1,-2,2
50.418925285339355,-1,-4,-4,-1,-2,-1,-4,0,2
50.41893172264099,-1,-2,0,0,1,3,2,1,2
50.42166090011597,1,2,0,2,1,-1,-1,0,2
50.42166590690613,-1,0,-3,-1,1,0,-1,-2,2
50.43191194534302,0,1,0,0,1,3,0,-1,2
50.43191719055176,-3,-3,-3,-5,-5,-4,-3,-4,2
50.44023561477661,0,-2,1,1,2,1,-1,1,2
50.440242290496826,0,-2,-2,-3,-1,0,0,-2,2
50.454909324645996,-1,0,1,1,0,0,1,1,2
50.45491576194763,0,-1,-1,-1,1,-1,-1,-1,2
50.46364784240723,0,-1,-2,-2,-3,-1,0,-1,2
50.463651180267334,-1,-4,-2,-2,-5,-6,-4,0,2
50.47856020927429,-1,1,2,0,1,-1,3,1,2
50.47856640815735,-2,0,0,-6,-3,-3,-5,-1,2
50.481650590896606,-3,1,0,3,3,1,3,0,2
50.48165583610535,-1,0,-3,-6,-3,-2,-4,-1,2
50.491416692733765,1,0,0,-1,-1,0,2,2,2
50.491419553756714,1,2,1,2,0,-1,2,2,2
50.50143647193909,1,1,-2,-4,-6,-2,-2,-2,2
50.501442432403564,-2,-1,-1,0,2,0,1,-1,2
50.516103744506836,-1,-2,-2,1,-1,-2,-3,0,2
50.51610827445984,1,0,1,0,1,0,1,-1,2
50.52421736717224,1,-1,1,3,1,0,0,-1,2
50.524221897125244,-2,0,-1,-1,0,-1,0,0,2
50.538409948349,1,-1,-1,-4,-2,-3,-4,-2,2
50.53841423988342,-2,0,0,4,2,-2,0,0,2
50.541088581085205,-5,-6,-6,-5,-4,-3,-7,-2,2
50.54109215736389,0,0,0,0,0,0,-1,-1,2
50.55190873146057,2,1,1,2,3,4,3,0,2
50.551913022994995,2,-1,1,3,0,0,0,1,2
50.561728954315186,-4,-2,-3,-6,-6,-3,-4,-2,2
50.56173348426819,-1,1,0,1,2,1,0,0,2
50.57417607307434,-2,-1,1,0,-1,0,-2,-2,2
50.57417917251587,1,0,-2,-5,-4,-2,-2,-2,2
50.58340525627136,1,1,-1,3,4,2,2,0,2
50.58340859413147,0,0,0,-1,-5,-2,-1,-2,2
50.59822487831116,-1,-1,-3,1,-1,-3,-2,0,2
50.598228931427,0,-1,-3,-1,-2,-1,-1,-3,2
50.600380182266235,-1,-2,-1,-2,2,2,-1,-1,2
50.60038352012634,1,1,0,2,2,1,-1,2,2
50.61186957359314,-2,-1,-3,-4,-2,-3,-4,-5,2
50.61244535446167,-5,-6,-6,-12,-9,-3,-5,-3,2
50.62676405906677,-2,-2,0,1,2,2,1,0,2
50.62676787376404,1,-1,2,5,4,-2,0,0,2
50.6353063583374,0,0,1,0,0,2,0,0,2
50.63531184196472,0,0,-1,1,0,-2,-1,0,2
50.64379954338074,-2,-4,-4,-4,-5,-3,-3,-2,2
50.64380383491516,-1,-2,-1,-4,-6,-2,-2,0,2
50.65735077857971,0,-1,-3,-1,2,0,-1,2,2
50.65735483169556,-1,0,-1,-2,-2,-2,-1,0,2
50.66620445251465,0,1,2,1,3,2,5,4,2
50.66620874404907,1,1,2,8,7,1,4,-1,2
50.672274351119995,-6,-7,-10,-11,-12,-6,-8,-7,2
50.672280073165894,-2,0,0,2,0,2,2,2,2
50.682533264160156,2,0,1,1,0,-1,-2,-1,2
50.68253946304321,-2,-2,-1,1,1,2,3,-1,2
50.694509983062744,1,2,3,3,2,2,4,2,2
50.694515228271484,2,0,-1,1,2,0,1,0,2
50.703996896743774,-4,-2,-2,3,-1,-3,-3,-4,2
50.7040011882782,-2,-2,-4,-10,-9,-4,-5,-2,2
50.72014498710632,2,-1,1,0,3,0,0,-2,2
50.720152139663696,-1,-2,-2,2,1,-1,-3,-3,2
50.72373819351196,0,-1,-3,-5,-2,-2,-1,-1,2
50.72374439239502,-2,-2,-2,-2,-1,-1,-3,-2,2
50.73131728172302,0,0,1,2,1,0,1,1,2
50.73131990432739,2,1,3,0,1,3,2,-2,2
50.7411744594574,4,3,3,8,5,3,3,0,2
50.74117827415466,-4,-6,-9,-12,-10,-6,-9,-3,2
50.75431227684021,0,-1,1,-1,-2,0,1,0,2
50.7543158531189,-3,-3,1,2,2,-1,-2,1,2
50.76411533355713,0,0,2,0,-2,0,1,1,2
50.76411986351013,2,3,3,3,2,-1,0,1,2
50.778417110443115,-4,-3,-4,0,1,0,-2,-3,2
50.77842140197754,-1,-1,-2,-6,-5,-1,-1,0,2
50.7804000377655,0,-1,-1,1,1,0,0,0,2
50.78040409088135,1,0,2,2,0,3,-1,-2,2
50.79225444793701,1,-1,0,-2,0,-1,-1,0,2
50.79225993156433,-2,-3,-1,1,-2,-2,-2,-1,2
50.80120897293091,-2,-1,-3,-7,-4,-2,-2,1,2
50.80121350288391,3,2,2,1,3,3,3,1,2
50.81441068649292,-2,1,-1,-1,-5,-4,-1,-1,2
50.814414739608765,1,0,-2,0,2,2,3,3,2
50.824182987213135,-3,-4,-6,-8,-5,-3,-3,-4,2
50.82418775558472,-2,-2,-3,0,-1,-1,-1,-3,2
50.83770227432251,0,0,0,1,1,1,0,-1,2
50.83770442008972,0,0,-2,-3,-2,-2,-2,-2,2
50.84149169921875,0,2,3,4,3,0,0,0,2
50.84149694442749,-1,-2,-3,-7,-3,-1,-1,-2,2
50.85188055038452,1,0,0,-1,0,2,0,0,2
50.8518853187561,-1,-3,-1,0,1,-1,-2,-3,2
50.86132073402405,1,-3,-2,-2,-1,-1,-1,-1,2
50.86132478713989,1,2,0,3,3,0,2,2,2
50.87481236457825,1,1,1,2,1,0,0,-1,2
50.87481737136841,0,1,-2,-3,-4,-3,-2,1,2
50.883647203445435,2,4,3,5,3,2,5,0,2
50.88365173339844,-7,-8,-8,-10,-7,-6,-8,-6,2
50.898210763931274,-2,-1,0,0,-2,-1,1,2,2
50.89821791648865,-1,0,1,1,-1,0,1,1,2
50.90035319328308,0,-1,-1,0,-2,-2,-1,-1,2
50.900357246398926,3,5,5,8,6,2,3,2,2
50.91181015968323,-3,-5,-5,-9,-5,-5,-7,-5,2
50.91181564331055,-2,-2,-2,-2,-3,-4,-2,-2,2
50.92125177383423,-1,0,0,0,0,0,-2,2,2
50.921255588531494,2,1,2,2,1,0,2,0,2
50.934261083602905,1,1,2,5,2,3,0,-2,2
50.93426489830017,-2,-1,-4,-2,0,-1,-2,0,2
50.94547414779663,-2,-3,-2,-5,-3,-1,-1,-2,2
50.945478677749634,0,-1,2,1,3,1,1,1,2
50.95812273025513,1,0,1,-1,0,1,2,2,2
50.95812678337097,1,2,0,4,-1,0,0,0,2
50.96015405654907,-4,-3,-3,-2,0,-2,-4,-1,2
50.96015810966492,-1,-1,-2,-3,-4,-3,0,-1,2
50.971784353256226,-1,2,1,2,4,1,0,0,2
50.97178864479065,1,-1,0,1,0,3,2,-1,2
