,time,chanel1,chanel2,chanel3,chanel4,chanel5,chanel6,chanel7,chanel8,position
0,14.005255460739136,39,29,31,41,46,180,107,35,2
1,14.028908491134644,39,29,34,47,47,183,110,35,2
2,14.042761087417603,36,28,37,45,39,233,138,35,2
3,14.065380096435547,40,29,36,40,35,197,129,30,2
4,14.531275987625122,34,31,40,101,102,84,49,29,2
5,14.553541421890259,36,32,42,103,103,83,49,30,2
6,14.568407535552979,39,30,38,85,74,72,41,30,2
7,14.590921401977539,41,31,34,64,61,88,55,31,2
8,15.155093431472778,46,38,48,107,78,95,62,32,1
9,15.167738676071167,51,43,52,140,80,117,74,35,1
10,15.191373825073242,52,47,56,157,82,116,74,33,1
11,15.21358036994934,62,42,49,146,78,108,68,33,1
12,15.227809190750122,63,40,43,138,75,115,73,34,1
13,15.251596689224243,67,39,39,130,68,110,71,33,1
14,15.273945331573486,64,35,39,119,63,87,61,29,1
15,15.288193464279175,60,31,34,98,58,71,49,31,1
16,15.311038494110107,57,30,36,116,59,71,58,30,1
17,15.333990097045898,62,33,41,157,69,50,60,29,1
18,15.347845554351807,70,38,48,165,78,46,70,27,1
19,15.371204376220703,71,39,45,150,82,43,69,27,1
20,15.393948554992676,73,41,47,181,93,41,72,27,1
21,15.40769910812378,81,45,50,261,110,71,84,27,1
22,15.431292533874512,84,49,53,263,119,77,89,29,1
23,15.453501224517822,74,54,55,269,121,75,83,30,1
24,15.476050615310669,71,53,55,270,125,81,83,31,1
25,16.054028511047363,91,202,95,94,79,91,201,64,1
26,16.075908660888672,90,197,89,96,79,92,205,59,1
27,16.090173721313477,90,209,100,114,86,87,226,68,1
28,16.11284375190735,91,216,108,113,86,84,252,73,1
29,16.13767409324646,104,226,121,111,82,82,257,78,1
30,16.16544818878174,101,183,113,110,84,97,271,83,1
31,16.18790316581726,95,192,113,106,79,93,265,81,1
32,16.212453365325928,90,176,106,85,67,93,240,70,1
33,16.240678310394287,99,186,108,85,72,95,217,64,1
34,16.2626850605011,85,177,97,79,75,104,269,63,1
35,16.28718328475952,79,173,93,74,72,93,256,57,1
36,16.315263271331787,79,175,91,73,81,100,251,61,1
37,16.338063955307007,87,186,98,73,84,118,299,63,1
38,16.362204551696777,84,191,97,72,81,119,293,64,1
39,16.390289545059204,89,177,91,69,75,107,242,59,1
40,16.41260838508606,93,177,96,75,75,105,246,64,1
41,16.43746280670166,108,186,104,79,69,107,270,82,1
42,16.465322017669678,103,175,101,83,71,90,226,80,1
43,16.488881826400757,94,153,92,77,65,85,220,83,1
44,16.51042604446411,106,165,103,88,80,96,238,87,1
45,16.540696144104004,110,174,105,87,81,89,225,83,1
46,16.564918279647827,99,167,100,88,90,97,203,69,1
47,16.590429067611694,94,164,91,81,86,97,191,68,1
48,16.61525273323059,91,163,90,82,87,98,202,65,1
49,16.637897491455078,77,151,77,77,92,99,165,60,1
50,16.66212248802185,65,146,71,74,92,102,162,58,1
51,16.690584659576416,65,123,69,62,76,92,179,50,1
52,16.71293544769287,67,135,73,63,78,91,192,51,1
53,16.73628306388855,69,161,76,64,78,92,188,50,1
54,16.765326499938965,59,162,72,55,56,76,180,49,1
55,16.78795886039734,69,170,75,55,54,75,183,53,1
56,16.812022924423218,70,173,72,55,58,69,149,51,1
57,16.840141773223877,69,160,69,53,51,64,128,51,1
58,16.865431308746338,73,150,74,54,59,81,144,51,1
59,16.886868238449097,86,148,76,54,56,77,146,49,1
60,16.89337944984436,77,125,68,49,53,78,141,44,1
61,16.900435209274292,75,130,80,69,75,84,143,48,1
62,16.907212734222412,74,133,85,74,79,85,140,53,1
63,16.915809869766235,74,125,82,71,74,64,107,53,1
64,16.923149824142456,67,134,83,75,81,68,102,55,1
65,16.930351734161377,69,138,85,78,82,62,99,56,1
66,16.939314365386963,66,134,76,64,65,58,105,56,1
67,16.945160388946533,66,135,72,60,60,59,108,51,1
68,16.95543909072876,63,121,69,60,59,59,102,50,1
69,16.956411361694336,55,122,70,56,52,56,123,55,1
70,16.961918830871582,54,122,70,56,52,59,129,53,1
71,16.97589945793152,49,111,63,51,46,49,117,49,1
72,16.997989654541016,55,114,70,67,67,56,115,49,1
73,17.01264524459839,54,114,69,66,68,56,117,46,1
74,17.035989999771118,53,94,62,72,73,60,90,39,1
75,17.06599760055542,63,103,59,74,74,59,85,45,1
76,17.073469638824463,64,100,62,78,78,57,80,44,1
77,17.095994234085083,63,95,56,72,69,57,84,40,1
78,17.12174105644226,64,117,59,72,72,59,99,41,1
79,17.133415937423706,66,119,59,64,67,55,111,41,1
80,17.156638145446777,59,111,58,69,76,64,113,41,1
81,17.178412199020386,61,135,60,67,72,65,114,45,1
82,17.192838430404663,59,141,57,58,65,59,120,51,1
83,17.215900659561157,57,126,52,56,60,58,100,54,1
84,17.239668130874634,54,126,52,54,57,55,88,54,1
85,17.255714893341064,53,119,57,50,56,49,83,53,1
86,17.275389432907104,55,107,56,48,64,55,86,49,1
87,17.29834508895874,56,95,58,48,64,53,65,43,1
88,17.312692642211914,57,102,61,56,71,52,78,45,1
89,17.336060285568237,55,100,61,56,70,52,75,43,1
90,17.358537912368774,56,104,59,52,67,50,73,40,1
91,17.380953311920166,58,94,55,49,60,47,80,44,1
92,17.395870685577393,57,95,52,56,64,53,86,44,1
93,17.418643712997437,57,81,48,48,54,50,82,37,1
94,17.44095277786255,59,85,49,49,55,51,88,37,1
95,17.455324411392212,57,100,50,44,46,56,98,41,1
96,17.478469371795654,57,104,53,49,44,51,91,37,1
97,17.50110936164856,52,99,50,41,37,46,88,36,1
98,17.516014575958252,53,113,51,44,39,53,86,37,1
99,17.538572788238525,54,113,51,54,51,65,80,40,1
100,17.561394929885864,56,110,53,63,63,65,66,39,1
101,17.575884580612183,51,108,47,59,67,69,71,40,1
102,17.59844660758972,53,117,57,65,76,72,76,44,1
103,17.620480060577393,56,106,59,67,81,70,73,45,1
104,17.63668990135193,53,109,60,59,75,64,118,46,1
105,17.658482551574707,52,105,59,52,69,57,121,44,1
106,17.680943727493286,51,101,59,50,64,55,118,41,1
107,17.69588279724121,56,104,61,57,64,55,116,40,1
108,17.71874499320984,55,104,61,56,60,51,116,41,1
109,17.740251779556274,60,111,63,57,58,46,70,34,1
110,17.757985591888428,55,103,58,53,53,48,67,33,1
111,17.779640197753906,58,99,59,56,55,46,65,37,1
112,17.80048966407776,59,91,54,47,47,44,61,35,1
113,17.817055463790894,54,94,50,43,42,44,54,29,1
114,17.8407199382782,50,76,43,44,49,43,57,31,1
115,17.85965132713318,57,72,46,51,53,41,52,40,1
116,17.87688112258911,58,90,49,53,57,47,57,39,1
117,17.89947271347046,52,92,49,52,61,47,67,40,1
118,17.921191453933716,56,98,52,55,66,54,75,45,1
119,17.93618416786194,55,108,54,54,61,54,75,48,1
120,17.95978569984436,51,111,52,51,61,58,78,45,1
121,17.980181455612183,49,119,58,49,60,58,75,48,1
122,17.99697470664978,59,125,54,47,59,58,73,48,1
123,18.020071506500244,56,118,54,47,59,53,64,45,1
124,18.04037642478943,54,112,52,45,57,52,69,46,1
125,18.06273913383484,56,115,56,49,61,52,78,46,1
126,18.08045768737793,52,93,47,50,63,53,76,47,1
127,18.100167989730835,44,79,45,48,58,51,71,50,1
128,18.116089344024658,48,77,46,48,56,49,70,48,1
129,18.141085386276245,54,83,49,54,60,55,71,46,1
130,18.160163640975952,54,77,45,51,55,56,68,44,1
131,18.183690547943115,58,87,48,48,53,56,71,39,1
132,18.199423789978027,54,83,48,48,55,54,67,37,1
133,18.22133207321167,55,100,51,44,56,55,79,44,1
134,18.244539976119995,52,96,52,41,58,49,73,43,1
135,18.259493350982666,51,94,49,37,56,42,63,40,1
136,18.280083179473877,47,91,50,43,56,39,62,41,1
137,18.302839279174805,52,96,55,53,61,54,78,42,1
138,18.31978988647461,51,79,50,58,61,56,70,39,1
139,18.340495347976685,47,70,44,56,57,55,69,39,1
140,18.36262798309326,43,70,46,62,62,60,72,39,1
141,18.378989934921265,44,67,44,58,58,60,73,36,1
142,18.400137662887573,41,62,41,49,50,52,63,37,1
143,18.42451786994934,40,61,45,52,55,52,75,36,1
144,18.445845127105713,43,63,48,54,60,57,75,43,1
145,18.45996880531311,53,75,49,56,64,57,82,44,1
146,18.48229193687439,52,78,49,55,61,53,78,45,1
147,18.499639987945557,54,94,49,56,63,50,77,42,1
148,18.520758152008057,54,96,45,52,61,48,64,40,1
149,18.542659997940063,56,98,46,50,57,49,68,32,1
150,18.5589656829834,49,88,45,45,53,46,56,36,1
151,18.57978367805481,51,84,44,54,72,55,56,37,1
152,18.604522943496704,49,68,42,55,73,55,57,39,1
153,18.620365858078003,49,74,46,60,79,65,69,39,1
154,18.64006543159485,50,86,47,62,80,63,66,40,1
155,18.662689208984375,49,86,46,64,82,63,68,36,1
156,18.678513288497925,50,85,46,63,72,57,68,41,1
157,18.700000762939453,51,82,45,60,71,56,62,39,1
158,18.722723722457886,49,81,41,50,57,42,48,42,1
159,18.74150848388672,47,68,39,52,61,45,69,41,1
160,18.75963020324707,51,69,44,55,65,53,81,45,1
161,18.782735586166382,49,75,51,54,63,54,86,39,1
162,18.7997088432312,51,75,51,54,60,51,87,40,1
163,18.82033371925354,52,76,56,59,66,56,90,41,1
164,18.843149423599243,52,70,54,52,58,52,79,41,1
165,18.861232042312622,49,77,50,46,49,49,74,38,1
166,18.8797025680542,51,73,41,43,47,48,71,38,1
167,18.90234637260437,50,70,41,45,49,50,71,37,1
168,18.9198899269104,49,60,38,42,46,48,66,35,1
169,18.940407037734985,52,77,38,48,53,52,65,36,1
170,18.962772369384766,54,75,38,48,54,49,58,36,1
171,18.97950029373169,56,72,41,48,56,49,56,40,1
172,19.000147342681885,54,82,46,49,57,47,56,38,1
173,19.02304244041443,53,100,51,47,54,45,62,37,1
174,19.04033875465393,49,91,54,45,55,40,63,39,1
175,19.060283660888672,44,89,54,43,52,41,72,40,1
176,19.08260679244995,38,86,53,38,46,41,76,40,1
177,19.0997953414917,42,84,53,39,46,42,78,43,1
178,19.120331287384033,42,65,55,53,60,48,73,43,1
179,19.1420841217041,51,82,61,58,58,50,71,41,1
180,19.160061359405518,52,82,61,57,58,48,65,42,1
181,19.18036150932312,51,89,63,61,65,55,83,38,1
182,19.202899932861328,48,86,59,61,68,57,86,39,1
183,19.220981121063232,48,88,56,61,65,60,86,44,1
184,19.24126696586609,52,78,46,57,62,59,90,43,1
185,19.26279044151306,54,82,49,61,65,62,100,47,1
186,19.285471200942993,55,81,53,64,68,67,84,47,1
187,19.30013108253479,54,81,53,63,64,64,78,46,1
188,19.32267451286316,54,83,47,52,54,57,81,45,1
189,19.34532904624939,39,81,48,53,56,57,76,46,1
190,19.36013650894165,36,73,47,50,55,55,60,41,1
191,19.38256335258484,35,66,40,46,43,40,54,41,1
192,19.40695285797119,35,70,44,47,46,43,62,40,1
193,19.423012018203735,37,71,44,46,47,45,60,40,1
194,19.442710638046265,37,66,45,45,49,46,59,36,1
195,19.465030908584595,36,67,44,48,53,45,56,38,1
196,19.47965431213379,38,68,43,44,52,45,70,41,1
197,19.50229239463806,40,68,40,43,51,43,65,43,1
198,19.52461576461792,39,68,38,44,51,40,61,40,1
199,19.539827823638916,40,71,38,46,50,39,64,42,1
200,19.562876224517822,39,76,41,43,46,40,69,44,1
201,19.584798336029053,39,89,45,42,47,40,64,41,1
202,19.59982466697693,41,86,46,42,49,42,65,41,1
203,19.622825622558594,40,82,49,48,52,47,68,40,1
204,19.64519166946411,41,84,49,43,51,46,72,40,1
205,19.660135984420776,44,77,46,41,48,41,64,37,1
206,19.682615995407104,45,65,41,39,46,40,58,37,1
207,19.707342863082886,49,66,42,42,47,42,67,33,1
208,19.720596075057983,54,71,40,35,40,45,73,37,1
209,19.7426700592041,55,70,36,37,39,48,74,39,1
210,19.765305995941162,56,72,37,42,43,47,77,37,1
211,19.7820782661438,52,67,35,45,43,48,81,37,1
212,19.80311155319214,49,69,31,42,45,46,71,36,1
213,19.82532572746277,41,63,35,44,47,41,66,34,1
214,19.840463876724243,39,71,39,46,51,40,62,36,1
215,19.862709999084473,35,73,37,43,49,45,63,36,1
216,19.88501501083374,39,77,40,46,53,46,61,35,1
217,19.899834156036377,45,93,44,53,59,52,75,43,1
218,19.922778367996216,46,91,39,50,57,52,81,42,1
219,19.945223808288574,44,90,44,48,55,54,84,41,1
220,19.960212469100952,51,88,45,51,60,53,83,42,1
221,19.984498023986816,56,96,48,49,58,55,83,46,1
222,20.00758171081543,50,85,49,43,53,47,72,37,1
223,20.021199226379395,52,85,50,43,54,45,72,43,1
224,20.04231858253479,57,85,47,51,57,49,74,45,1
225,20.064697980880737,53,85,46,50,54,50,74,46,1
226,20.0802903175354,48,79,41,51,55,55,90,43,1
227,20.10273790359497,50,73,38,50,54,57,95,44,1
228,20.12534213066101,51,78,40,52,63,63,88,41,1
229,20.140960454940796,49,69,35,44,57,59,81,40,1
230,20.162704944610596,51,70,35,45,63,61,82,40,1
231,20.18535804748535,51,64,39,41,62,56,66,39,1
232,20.207915782928467,48,59,38,38,60,55,57,39,1
233,20.223185777664185,52,54,36,39,55,48,64,37,1
234,20.245109796524048,54,63,38,42,54,47,67,35,1
235,20.267643451690674,51,63,40,40,46,40,65,33,1
236,20.282607316970825,52,64,36,42,44,38,64,32,1
237,20.305396795272827,53,66,39,44,48,38,69,33,1
238,20.327932119369507,47,64,38,41,46,39,69,35,1
239,20.344592809677124,44,54,37,41,51,41,72,32,1
240,20.365472078323364,44,53,35,45,57,43,76,34,1
241,20.388238668441772,44,60,36,43,57,41,72,38,1
242,20.403650045394897,53,95,56,61,72,48,70,41,1
243,20.425240516662598,57,99,58,64,77,59,81,44,1
244,20.449338674545288,57,109,62,66,77,59,81,45,1
245,20.462100982666016,61,118,68,69,76,60,83,49,1
246,20.4859619140625,62,116,69,71,81,67,92,47,1
247,20.50779128074646,56,88,54,62,70,62,90,45,1
248,20.522984504699707,53,84,52,63,65,55,75,41,1
249,20.54464817047119,57,76,48,60,64,51,71,48,1
250,20.56761908531189,55,63,41,53,60,50,66,44,1
251,20.58254599571228,53,67,40,53,59,46,67,44,1
252,20.605334997177124,53,67,42,48,56,47,66,46,1
253,20.628304719924927,52,75,41,40,51,42,69,49,1
254,20.643171787261963,58,73,48,52,58,50,80,44,1
255,20.664747953414917,55,71,50,55,61,55,80,46,1
256,20.689812898635864,53,69,51,57,59,55,71,45,1
257,20.70280957221985,58,71,51,59,59,56,72,44,1
258,20.72602081298828,61,76,52,62,61,58,77,46,1
259,20.747649431228638,49,84,50,52,51,51,74,45,1
260,20.762598276138306,53,89,50,55,50,49,72,43,1
261,20.785227298736572,60,100,57,53,52,48,77,46,1
262,20.807268142700195,53,102,57,53,52,47,75,45,1
263,20.82230806350708,48,90,55,52,58,48,63,37,1
264,20.84465193748474,52,100,69,65,72,53,57,39,1
265,20.867632150650024,50,107,70,59,70,51,81,40,1
266,20.88251233100891,42,95,66,61,71,55,83,43,1
267,20.905280113220215,47,94,66,60,70,56,85,43,1
268,20.92758297920227,48,96,66,57,65,54,90,44,1
269,20.943026542663574,45,83,52,42,53,49,88,43,1
270,20.965118169784546,45,66,46,43,49,48,69,42,1
271,20.9877667427063,46,71,48,48,54,48,71,36,1
272,21.002973556518555,43,68,46,48,54,47,78,35,1
273,21.02569031715393,43,72,46,47,52,45,73,38,1
274,21.047690391540527,42,70,41,50,53,50,80,36,1
275,21.06269121170044,40,78,44,51,58,54,81,39,1
276,21.08518123626709,39,80,46,48,57,59,99,42,1
277,21.108074426651,41,80,51,55,63,61,93,41,1
278,21.12276554107666,47,85,57,59,68,63,97,40,1
279,21.145323991775513,51,90,57,60,69,62,93,40,1
280,21.167661428451538,51,85,54,56,66,58,92,40,1
281,21.1903076171875,59,99,59,54,58,48,75,37,1
282,21.208329916000366,59,97,57,54,63,52,80,40,1
283,21.22775101661682,56,104,61,49,57,50,73,40,1
284,21.250122547149658,53,108,69,54,58,46,69,37,1
285,21.264991760253906,55,111,74,57,63,50,70,34,1
286,21.287883758544922,45,91,63,54,60,47,54,33,1
287,21.310158252716064,49,99,65,48,48,39,49,31,1
288,21.325313091278076,48,84,56,53,55,40,48,28,1
289,21.347622871398926,46,67,46,44,50,41,48,28,1
290,21.370219230651855,45,63,43,64,72,51,50,30,1
291,21.385165452957153,45,67,46,65,75,53,62,30,1
292,21.408360242843628,37,57,43,65,75,54,58,35,1
293,21.43042802810669,38,54,41,62,73,55,68,37,1
294,21.445318937301636,40,53,38,62,73,55,75,36,1
295,21.467657804489136,43,62,42,39,46,43,81,32,1
296,21.49033784866333,52,62,41,37,44,41,78,35,1
297,21.505561351776123,56,63,41,38,45,41,77,36,1
298,21.52772283554077,57,64,43,39,44,42,73,34,1
299,21.550371646881104,56,77,44,37,42,38,67,38,1
300,21.5651752948761,54,81,39,35,45,42,58,43,1
301,21.587934017181396,46,79,39,40,50,48,58,40,1
302,21.610261917114258,40,78,37,37,49,49,72,36,1
303,21.625405311584473,42,86,43,35,48,47,76,39,1
304,21.648042678833008,46,76,44,36,49,53,83,38,1
305,21.670353889465332,47,63,44,42,50,54,81,34,1
306,21.684733867645264,51,64,42,37,46,51,79,40,1
307,21.707361698150635,51,64,42,42,46,50,80,43,1
308,21.73025631904602,49,63,40,46,54,58,78,41,1
309,21.746647357940674,47,65,43,51,57,55,74,41,1
310,21.76763916015625,47,66,40,45,52,52,81,43,1
311,21.790522813796997,42,65,42,50,55,51,78,38,1
312,21.80553150177002,53,84,48,51,56,53,78,37,1
313,21.827665328979492,60,81,43,49,48,42,86,39,1
314,21.850172996520996,59,83,42,50,51,46,90,38,1
315,21.865209102630615,56,85,44,51,52,48,85,37,1
316,21.89113688468933,56,84,43,49,51,49,99,39,1
317,21.91023302078247,46,65,39,44,48,47,91,39,1
318,21.92518186569214,37,71,40,43,52,50,93,36,1
319,21.94755506515503,35,71,40,35,46,46,98,35,1
320,21.970723628997803,37,67,39,42,54,46,102,36,1
321,21.985277891159058,43,72,42,47,55,44,99,34,1
322,22.008957862854004,47,76,42,50,55,44,100,32,1
323,22.030593156814575,51,67,41,58,63,45,89,37,1
324,22.045244693756104,50,60,39,58,63,47,77,37,1
325,22.06782364845276,49,60,40,53,55,46,75,41,1
326,22.089896202087402,48,58,38,47,51,44,63,39,1
327,22.11213994026184,55,64,37,49,54,52,61,39,1
328,22.136399507522583,53,70,42,43,45,52,64,37,1
329,22.15011501312256,59,80,45,54,55,151,107,52,1
330,22.172804594039917,61,81,43,57,58,155,111,50,1
331,22.19362235069275,59,80,45,57,58,159,114,53,1
332,22.21029496192932,49,70,42,54,58,161,115,53,1
333,22.232635021209717,50,74,42,55,58,161,113,54,1
334,22.24732255935669,50,74,46,54,57,81,75,42,1
335,22.27032732963562,51,81,45,53,58,75,68,39,1
336,22.292725563049316,54,81,48,60,69,77,70,42,1
337,22.307754039764404,54,82,48,59,65,68,67,42,1
338,22.3304340839386,52,71,45,59,67,69,68,39,1
339,22.352906942367554,46,66,46,56,62,67,70,39,1
340,22.36758327484131,43,59,48,54,61,66,72,42,1
341,22.390272617340088,47,59,50,53,56,54,67,36,1
342,22.412782669067383,48,67,50,53,59,54,63,37,1
343,22.428788661956787,45,66,48,48,53,46,69,38,1
344,22.450107097625732,46,65,41,45,49,45,67,40,1
345,22.474443435668945,44,64,39,46,49,43,64,38,1
346,22.48764443397522,42,78,37,39,45,39,63,39,1
347,22.51022720336914,51,81,42,39,43,41,66,39,1
348,22.532603979110718,51,81,41,42,47,41,65,40,1
349,22.547772884368896,53,89,46,42,49,44,68,38,1
350,22.570536375045776,60,93,50,47,51,48,76,41,1
351,22.592058658599854,55,80,46,45,47,47,79,42,1
352,22.60914921760559,47,71,45,46,47,50,79,43,1
353,22.62973117828369,50,70,47,49,52,62,79,46,1
354,22.652801752090454,50,54,41,45,53,66,76,45,1
355,22.66715908050537,47,47,36,40,59,92,81,43,1
356,22.690250396728516,51,45,32,38,57,96,82,45,1
357,22.71272325515747,50,47,31,41,57,94,84,42,1
358,22.72778081893921,46,47,31,39,51,89,78,41,1
359,22.750078439712524,41,47,29,39,46,86,84,42,1
360,22.773271560668945,41,49,29,39,37,56,77,42,1
361,22.78806209564209,39,60,37,45,44,53,74,39,1
362,22.81014609336853,41,59,35,39,43,51,81,41,1
363,22.83271551132202,44,58,34,38,41,51,79,41,1
364,22.847578763961792,48,59,36,39,42,48,77,39,1
365,22.87024688720703,46,72,43,41,43,49,71,42,1
366,22.892794847488403,45,65,39,39,40,46,74,40,1
367,22.908400774002075,46,65,43,47,43,47,66,38,1
368,22.930349826812744,43,66,44,47,42,44,64,35,1
369,22.969207525253296,40,70,48,49,46,46,78,32,1
370,22.97176742553711,39,65,43,47,44,43,84,28,1
371,22.992613315582275,47,84,48,45,43,41,82,28,1
372,23.020848274230957,46,85,47,40,42,39,85,34,1
373,23.02765130996704,47,85,50,45,51,44,86,37,1
374,23.05020570755005,51,87,48,41,46,41,74,43,1
375,23.073503017425537,51,82,49,43,47,43,74,43,1
376,23.09608030319214,44,63,46,48,55,48,71,43,1
377,23.11018180847168,42,62,48,53,62,51,63,39,1
378,23.132687091827393,41,60,41,47,57,47,61,39,1
379,23.15899896621704,45,62,41,51,61,49,68,37,1
380,23.17004895210266,47,67,44,52,61,50,66,41,1
381,23.19265627861023,46,67,41,49,58,49,70,44,1
382,23.215784788131714,53,67,40,46,53,51,73,45,1
383,23.230144023895264,67,78,47,55,61,61,76,43,1
384,23.253916263580322,67,90,54,59,60,56,68,40,1
385,23.275527715682983,67,94,61,66,65,56,73,44,1
386,23.289801359176636,67,95,62,67,64,56,70,42,1
387,23.312609672546387,69,101,63,69,69,54,69,42,1
388,23.33591055870056,59,98,61,63,63,45,71,42,1
389,23.350167751312256,59,86,59,62,64,46,72,46,1
390,23.373785734176636,55,78,49,53,62,44,61,41,1
391,23.39609169960022,56,77,51,50,61,43,59,41,1
392,23.41010069847107,51,66,46,48,56,44,65,43,1
393,23.43263864517212,56,66,49,48,57,47,69,44,1
394,23.456280946731567,55,67,48,50,62,56,64,43,1
395,23.470353603363037,57,63,46,49,60,55,64,42,1
396,23.492955207824707,59,62,46,51,64,63,71,41,1
397,23.515855073928833,58,71,48,50,62,63,70,39,1
398,23.530259132385254,51,69,46,52,62,62,58,38,1
399,23.553072690963745,46,62,40,47,58,56,61,35,1
400,23.575648307800293,46,59,39,49,58,58,65,35,1
401,23.589937686920166,45,63,39,51,57,52,59,34,1
402,23.61212182044983,47,57,38,51,53,50,59,30,1
403,23.636017560958862,48,60,36,53,54,50,68,31,1
404,23.65021824836731,48,66,40,55,59,56,67,32,1
405,23.675888538360596,47,65,40,56,64,57,70,30,1
406,23.69592308998108,49,75,49,56,65,57,76,34,1
407,23.710214614868164,46,74,53,62,70,58,79,37,1
408,23.732733011245728,42,70,55,64,69,57,77,38,1
409,23.75615358352661,47,75,59,64,64,52,74,39,1
410,23.770408630371094,50,89,63,63,60,49,71,43,1
411,23.79295015335083,47,77,55,61,58,48,64,41,1
412,23.816253423690796,52,77,51,57,58,52,62,41,1
413,23.830520629882812,54,77,50,54,57,51,55,40,1
414,23.852569341659546,54,65,44,53,56,51,56,41,1
415,23.87797713279724,51,52,44,54,58,49,55,39,1
416,23.89052700996399,52,52,45,54,56,47,60,36,1
417,23.912229299545288,47,53,45,54,56,43,79,36,1
418,23.936097860336304,45,51,41,50,53,42,80,36,1
419,23.950079679489136,37,50,41,51,55,38,78,31,1
420,23.97290849685669,40,48,44,61,66,55,93,34,1
421,23.995983362197876,42,48,45,60,66,55,92,37,1
422,24.018903255462646,40,52,48,61,65,53,71,36,1
423,24.03274655342102,39,50,49,62,69,53,72,34,1
424,24.056198596954346,41,68,54,59,69,56,72,34,1
425,24.07846713066101,35,70,47,49,53,43,59,31,1
426,24.092723608016968,33,68,48,48,51,43,66,28,1
427,24.115781784057617,39,73,44,43,46,46,71,26,1
428,24.138417959213257,41,77,46,44,47,50,72,28,1
429,24.152620792388916,41,64,39,42,42,47,75,31,1
430,24.17608880996704,44,66,43,43,46,49,77,28,1
431,24.19829535484314,45,88,46,46,49,53,73,28,1
432,24.212767124176025,44,89,45,45,52,53,88,39,1
433,24.235821962356567,46,93,46,48,50,50,85,39,1
434,24.25851607322693,45,96,50,49,55,52,85,40,1
435,24.27316379547119,50,99,50,52,57,47,79,43,1
436,24.296207427978516,54,85,46,52,56,42,79,45,1
437,24.317996501922607,52,76,49,55,60,39,65,38,1
438,24.332169771194458,53,76,50,61,68,45,70,38,1
439,24.35697102546692,58,81,49,61,65,43,66,36,1
440,24.378679752349854,53,76,47,59,63,50,68,36,1
441,24.392419815063477,54,83,53,66,78,75,113,36,1
442,24.41523575782776,53,83,50,64,73,73,112,34,1
443,24.43829607963562,50,82,46,55,65,71,112,38,1
444,24.45262384414673,51,78,47,54,65,71,115,44,1
445,24.476669549942017,53,85,47,52,66,69,114,44,1
446,24.498412370681763,53,75,40,43,47,45,72,44,1
447,24.512603521347046,52,75,40,45,48,47,70,45,1
448,24.535924673080444,52,70,46,55,56,61,82,43,1
449,24.558406591415405,46,62,43,53,58,62,83,39,1
450,24.572906970977783,41,43,42,56,58,64,84,38,1
451,24.595916986465454,34,45,46,60,65,62,80,41,1
452,24.618445873260498,37,55,50,62,68,64,81,45,1
453,24.63284993171692,39,57,45,56,63,53,74,43,1
454,24.655866861343384,40,65,50,62,67,56,69,41,1
455,24.678744792938232,42,67,50,58,64,52,67,43,1
456,24.692236185073853,44,70,48,54,59,57,82,39,1
457,24.715484380722046,43,64,43,50,55,56,81,34,1
458,24.738489627838135,40,64,45,47,52,52,73,34,1
459,24.75271987915039,39,67,45,42,48,48,77,39,1
460,24.77656054496765,39,70,52,50,56,52,78,37,1
461,24.798302173614502,40,63,51,48,55,46,85,37,1
462,24.812731981277466,46,82,62,56,57,47,86,39,1
463,24.835795402526855,52,80,61,58,58,47,85,41,1
464,24.85845136642456,55,77,59,63,64,52,86,38,1
465,24.87294030189514,57,75,52,60,62,49,87,37,1
466,24.895933151245117,58,76,54,63,67,52,64,36,1
467,24.918924570083618,54,55,43,59,66,55,64,36,1
468,24.932579040527344,50,60,44,59,65,57,75,38,1
469,24.956024169921875,48,54,47,56,63,52,71,40,1
470,24.97847008705139,45,56,47,53,61,56,72,43,1
471,25.00088381767273,52,71,52,59,65,54,72,44,1
472,25.015779733657837,52,77,50,56,64,52,93,45,1
473,25.038381099700928,53,74,50,60,70,53,84,41,1
474,25.061015605926514,52,71,43,55,62,51,83,38,1
475,25.075300693511963,55,70,44,56,60,46,81,41,1
476,25.09832215309143,48,62,41,53,55,44,82,43,1
477,25.12100052833557,54,61,45,52,55,42,53,41,1
478,25.135191917419434,52,58,40,44,46,37,51,43,1
479,25.158692359924316,51,57,44,50,60,43,52,43,1
480,25.18845820426941,48,60,43,50,61,46,53,37,1
481,25.195317029953003,45,57,37,40,53,43,45,34,1
482,25.218347549438477,40,55,33,42,56,46,63,33,1
483,25.241456031799316,41,62,47,55,64,57,75,34,1
484,25.255441188812256,42,64,45,49,53,53,77,36,1
485,25.278381824493408,43,68,45,49,53,51,79,35,1
486,25.300952434539795,46,75,54,61,64,54,87,36,1
487,25.315645694732666,47,72,57,65,67,52,80,40,1
488,25.33828091621399,45,69,47,57,61,42,71,38,1
489,25.36131191253662,48,72,49,60,64,42,68,40,1
490,25.375290632247925,45,67,48,57,61,41,67,42,1
491,25.398364067077637,43,59,44,52,59,42,78,44,1
492,25.420796871185303,45,77,47,51,55,46,80,45,1
493,25.435178518295288,45,78,50,55,61,53,85,45,1
494,25.458330154418945,43,76,49,58,66,55,86,42,1
495,25.481436014175415,47,75,50,60,67,58,88,41,1
496,25.49526858329773,49,72,45,58,64,61,79,41,1
497,25.518360376358032,43,55,38,55,61,59,79,39,1
498,25.541203498840332,40,47,34,50,57,54,73,37,1
499,25.56332492828369,41,53,36,46,49,53,77,39,1
500,25.578991174697876,48,58,43,50,58,59,84,40,1
501,25.60096788406372,44,59,42,49,57,51,75,42,1
502,25.615233898162842,45,60,46,53,64,59,76,41,1
503,25.638652086257935,46,62,49,53,64,59,73,44,1
504,25.66824221611023,44,54,45,51,64,58,76,43,1
505,25.67513680458069,38,56,44,49,60,57,68,47,1
506,25.69847869873047,38,54,44,48,58,59,77,42,1
507,25.720927238464355,41,57,42,48,52,50,71,41,1
508,25.735416173934937,40,61,41,50,52,49,74,38,1
509,25.758331060409546,39,64,45,54,56,52,67,37,1
510,25.78069305419922,36,59,40,53,52,44,65,30,1
511,25.795648336410522,41,58,41,54,53,46,75,35,1
512,25.81867218017578,37,56,43,57,58,50,75,35,1
513,25.841028213500977,41,58,42,52,56,49,75,38,1
514,28.265358209609985,23,28,31,44,43,33,30,30,2
515,28.28498077392578,25,31,30,47,54,43,34,29,2
516,28.30795955657959,24,29,28,49,78,41,32,29,2
517,28.325624704360962,33,32,29,65,100,46,42,30,2
518,28.34528875350952,33,31,26,64,99,46,44,28,2
519,28.367935180664062,33,27,23,61,99,44,44,28,2
520,28.384830236434937,31,25,22,58,93,35,40,27,2
521,28.405327796936035,31,28,28,57,80,39,42,25,2
522,28.428139448165894,32,26,32,47,86,36,38,25,2
523,28.447614669799805,33,27,34,46,91,41,40,23,2
524,28.465126991271973,32,26,33,42,92,40,41,25,2
525,28.487589120864868,35,26,34,45,93,40,40,26,2
526,28.504778146743774,35,23,29,44,88,38,41,27,2
527,28.525302410125732,26,20,22,37,51,34,37,26,2
528,28.547992706298828,26,22,22,38,45,31,35,26,2
529,28.56447982788086,31,27,27,46,59,34,37,26,2
530,28.586977243423462,31,26,26,46,57,33,39,23,2
531,28.607791900634766,31,29,30,47,58,32,37,26,2
532,28.62356448173523,32,29,30,45,56,30,36,25,2
533,28.644787788391113,29,29,30,45,54,26,33,26,2
534,28.667539834976196,26,26,25,36,35,25,29,28,2
535,28.684334993362427,25,29,29,40,44,24,28,28,2
536,28.70523977279663,25,30,30,40,46,30,29,27,2
537,28.727689504623413,25,31,29,44,60,33,30,27,2
538,28.75024938583374,25,29,31,43,65,36,34,28,2
539,28.765086889266968,22,30,32,44,66,35,33,27,2
540,28.78757619857788,21,26,30,39,59,34,30,30,2
541,28.811596393585205,20,27,30,44,59,36,28,32,2
542,28.825252294540405,22,25,31,38,47,35,27,33,2
543,28.848702430725098,23,26,28,36,41,34,25,32,2
544,28.869969129562378,24,26,28,36,41,34,28,33,2
545,28.88502287864685,25,25,29,35,41,35,27,32,2
546,28.90777611732483,26,21,25,28,54,28,29,34,2
547,28.930134296417236,25,20,25,34,61,28,28,34,2
548,28.947158813476562,27,21,26,36,60,26,30,32,2
549,28.968996286392212,26,23,27,35,58,27,27,34,2
550,28.99028754234314,26,23,30,40,63,34,29,33,2
551,29.008630514144897,26,23,28,42,60,33,28,25,2
552,29.029658317565918,28,25,30,49,60,35,28,25,2
553,29.050517797470093,25,24,29,48,61,36,25,28,2
554,29.06702184677124,26,23,31,49,64,38,31,26,2
555,29.08752465248108,26,23,25,45,61,31,28,26,2
556,29.109736442565918,25,24,24,42,56,31,30,26,2
557,29.126174211502075,23,27,24,41,73,36,29,28,2
558,29.1479914188385,23,27,24,41,71,34,30,26,2
559,29.17006826400757,24,26,21,40,70,32,24,26,2
560,29.187902450561523,25,26,23,41,69,32,27,26,2
561,29.2075457572937,24,26,25,42,65,32,25,26,2
562,29.230000972747803,26,24,26,42,39,27,30,30,2
563,29.247358798980713,25,25,28,44,42,29,28,28,2
564,29.26773691177368,23,25,28,43,44,30,29,29,2
565,29.290196180343628,23,25,27,43,47,29,28,29,2
566,29.306235551834106,24,25,28,44,47,32,32,30,2
567,29.33457612991333,20,22,25,36,45,29,32,27,2
568,29.35015630722046,20,21,24,35,44,31,35,31,2
569,29.367265462875366,24,21,25,38,45,33,36,29,2
570,29.387619256973267,27,25,25,39,45,36,37,29,2
571,29.41331458091736,25,23,22,35,44,32,32,29,2
572,29.427021503448486,26,23,22,33,42,33,29,29,2
573,29.447072744369507,27,26,23,32,44,32,25,28,2
574,29.470403909683228,24,25,23,27,39,30,22,28,2
575,29.486104488372803,21,23,22,23,38,28,24,30,2
576,29.507152795791626,20,26,22,25,38,30,24,30,2
577,29.529595851898193,22,27,23,25,37,32,27,29,2
578,29.547252893447876,24,27,25,29,42,30,28,28,2
579,29.567891836166382,27,27,27,32,54,34,34,28,2
580,29.58999538421631,27,26,26,33,55,33,33,27,2
581,29.60679268836975,28,26,27,36,56,34,35,27,2
582,29.62798047065735,28,26,27,39,59,36,35,27,2
583,29.65015959739685,29,25,26,41,56,36,34,27,2
584,29.666929960250854,26,25,23,40,48,34,29,29,2
585,29.688034772872925,28,27,25,39,46,35,29,28,2
586,29.710453271865845,28,24,25,36,44,32,27,31,2
587,29.732682466506958,29,24,25,39,51,28,27,29,2
588,29.747815370559692,25,23,26,36,53,27,25,32,2
589,29.770423889160156,27,23,26,36,48,23,27,30,2
590,29.792794704437256,25,20,25,34,47,21,25,30,2
591,29.807682752609253,25,24,26,36,49,21,23,29,2
592,29.83008360862732,23,22,26,28,37,21,22,29,2
593,29.85295605659485,25,22,25,31,34,26,27,28,2
594,29.867591619491577,23,23,29,33,37,26,26,29,2
595,29.890093326568604,27,22,29,41,58,31,35,30,2
596,29.91312289237976,29,21,28,41,66,35,38,30,2
597,29.927656650543213,30,21,28,43,66,34,38,30,2
598,29.95013666152954,29,22,26,39,64,31,36,29,2
599,29.972529649734497,31,21,21,38,65,32,36,28,2
600,29.988014221191406,32,23,24,36,53,32,30,29,2
601,30.010164499282837,31,24,23,36,42,29,30,28,2
602,30.032081604003906,32,27,28,45,58,34,32,29,2
603,30.047690629959106,32,29,29,46,62,36,31,29,2
604,30.070209741592407,31,29,32,50,61,35,32,30,2
605,30.09286093711853,28,30,31,49,65,32,29,27,2
606,30.10773253440857,33,32,35,58,76,34,31,29,2
607,30.130155324935913,30,30,32,53,67,30,29,28,2
608,30.152564764022827,30,28,31,51,63,28,29,33,2
609,30.16752529144287,28,27,28,46,62,27,29,32,2
610,30.19002652168274,30,26,28,44,59,27,32,34,2
611,30.213537216186523,26,21,25,37,52,29,31,33,2
612,30.23062801361084,28,23,27,40,53,30,34,34,2
613,30.24999451637268,29,24,28,46,60,34,36,30,2
614,30.272082805633545,32,24,32,50,70,35,38,31,2
615,30.28718876838684,30,28,35,51,70,36,38,32,2
616,30.31199288368225,31,27,35,47,64,33,36,32,2
617,30.33311128616333,32,25,33,42,61,33,36,34,2
618,30.347628355026245,32,27,34,39,56,32,34,33,2
619,30.370198011398315,28,27,30,35,42,31,31,32,2
620,30.39374804496765,30,27,28,32,35,32,28,32,2
621,30.407567262649536,30,30,26,32,35,30,28,34,2
622,30.430600881576538,29,29,26,35,40,31,25,34,2
623,30.453949689865112,28,29,27,37,40,28,24,38,2
624,30.467434406280518,28,30,27,36,42,27,27,39,2
625,30.490042686462402,27,28,24,36,41,23,28,36,2
626,30.512226343154907,23,26,27,40,46,26,31,34,2
627,30.527143955230713,21,26,26,39,44,23,31,32,2
628,30.55008101463318,25,24,23,39,46,24,32,26,2
629,30.57251524925232,26,24,23,40,50,23,31,28,2
630,30.587484121322632,28,23,25,42,54,25,34,30,2
631,30.61360192298889,30,22,23,37,53,24,29,28,2
632,30.632588624954224,36,26,26,39,53,26,29,28,2
633,30.655153274536133,33,27,28,36,51,26,29,29,2
634,30.67042303085327,34,26,27,34,46,27,28,27,2
635,30.693690061569214,31,26,26,36,42,27,24,25,2
636,30.715047597885132,31,26,27,38,39,28,25,26,2
637,30.730517625808716,27,25,24,35,37,27,23,27,2
638,30.752546548843384,27,24,22,34,37,29,24,28,2
639,30.775025844573975,26,26,26,39,40,30,23,27,2
640,30.791940927505493,26,27,26,35,43,28,22,29,2
641,30.81251096725464,24,25,25,32,42,27,21,30,2
642,30.835060358047485,25,25,25,32,44,30,23,29,2
643,30.85004711151123,26,24,25,34,47,30,25,28,2
644,30.87271809577942,23,23,23,33,50,29,27,28,2
645,30.895066499710083,26,23,25,34,55,31,30,32,2
646,30.913102388381958,27,24,27,37,58,34,34,31,2
647,30.93216562271118,24,22,27,37,56,30,34,33,2
648,30.95539903640747,24,23,27,35,54,30,32,33,2
649,30.96999168395996,26,21,27,34,53,31,34,33,2
650,30.99371910095215,25,21,26,32,43,29,34,27,2
651,31.01530694961548,24,20,27,32,42,26,31,28,2
652,31.030144691467285,26,22,27,34,47,27,32,25,2
653,31.05295157432556,26,25,28,35,51,27,34,24,2
654,31.074837923049927,25,25,27,34,53,27,31,26,2
655,31.089491605758667,26,24,25,34,54,28,30,24,2
656,31.113157033920288,25,27,22,35,54,29,28,24,2
657,31.135103225708008,24,25,25,34,50,30,28,25,2
658,31.14996099472046,25,24,23,35,49,31,26,27,2
659,31.172675848007202,26,24,23,36,46,31,27,27,2
660,31.198127508163452,27,26,24,40,53,30,26,28,2
661,31.21037983894348,31,25,27,39,55,30,29,29,2
662,31.23270344734192,31,24,26,38,56,28,30,31,2
663,31.255240440368652,32,24,25,37,54,27,29,30,2
664,31.269975662231445,32,24,25,37,53,26,29,32,2
665,31.292548894882202,33,23,29,41,60,36,32,32,2
666,31.315301418304443,30,23,27,40,59,37,29,33,2
667,31.330050230026245,30,24,27,41,59,38,25,34,2
668,31.352571964263916,29,23,27,42,58,35,27,34,2
669,31.374967575073242,28,24,27,43,58,36,27,33,2
670,31.390897512435913,24,21,23,34,40,27,23,34,2
671,31.41316294670105,26,20,22,33,39,26,26,32,2
672,31.43456530570984,26,20,24,32,40,26,28,29,2
673,31.45004940032959,23,19,24,30,40,27,25,30,2
674,31.47237229347229,23,19,24,30,37,28,28,30,2
675,31.49543309211731,26,20,25,33,42,28,31,29,2
676,31.510377407073975,23,20,25,37,48,30,34,29,2
677,31.532565116882324,22,20,25,38,50,30,35,30,2
678,31.554986000061035,22,20,25,39,51,31,35,29,2
679,31.57005524635315,23,19,25,40,50,30,34,30,2
680,31.592248916625977,25,22,25,39,46,31,33,30,2
681,31.614620685577393,24,24,26,39,38,29,28,28,2
682,31.637666702270508,26,24,25,38,37,26,25,28,2
683,31.652408123016357,27,26,27,38,37,26,25,28,2
684,31.675068378448486,26,27,28,38,39,26,24,25,2
685,31.697320222854614,21,25,26,36,40,25,23,26,2
686,31.71226215362549,22,24,25,33,39,25,21,30,2
687,31.735539436340332,22,25,26,32,46,26,25,30,2
688,31.757712841033936,22,24,22,31,47,28,27,29,2
689,31.772552251815796,24,22,22,30,46,28,26,29,2
690,31.794843912124634,27,24,22,36,47,28,25,31,2
691,31.817646503448486,28,23,22,35,49,27,28,27,2
692,31.832702159881592,26,21,21,36,52,28,29,29,2
693,31.855176210403442,27,21,23,40,53,28,27,31,2
694,31.877928733825684,26,21,22,38,53,25,29,33,2
695,31.89262557029724,25,18,22,33,53,27,30,31,2
696,31.915096521377563,24,19,23,32,51,27,28,31,2
697,31.937686920166016,24,20,26,31,43,30,29,29,2
698,31.953450441360474,23,25,26,32,42,30,30,28,2
699,31.97541570663452,24,24,25,32,44,31,34,28,2
700,31.997857332229614,25,26,28,34,50,33,34,30,2
701,32.01266288757324,30,27,28,37,51,35,37,31,2
702,32.035650968551636,31,28,25,34,47,32,32,31,2
703,32.057995080947876,32,23,23,30,44,31,32,33,2
704,32.072548389434814,30,25,26,31,39,32,32,31,2
705,32.095300912857056,30,24,25,30,37,29,32,30,2
706,32.11800217628479,25,22,25,28,42,27,28,31,2
707,32.13249349594116,25,22,25,31,44,28,28,30,2
708,32.155030488967896,25,22,25,29,44,27,28,30,2
709,32.177812337875366,25,20,22,31,44,25,24,31,2
710,32.19324707984924,24,22,23,34,41,27,25,33,2
711,32.21561050415039,24,24,22,32,35,26,24,31,2
712,32.23702931404114,22,24,23,32,37,26,26,33,2
713,32.25255799293518,20,25,22,34,41,30,29,31,2
714,32.275344371795654,23,26,26,35,44,30,30,35,2
715,32.29790902137756,24,24,25,33,47,28,28,31,2
716,32.312657833099365,25,22,25,34,48,27,29,31,2
717,32.335211992263794,25,22,28,36,51,29,30,31,2
718,32.35820412635803,25,20,28,36,52,28,26,29,2
719,32.372366189956665,23,20,26,34,49,28,25,25,2
720,32.39525318145752,22,22,28,33,48,28,28,26,2
721,32.417661905288696,24,24,28,34,51,30,26,25,2
722,32.43271350860596,27,22,25,29,44,28,24,25,2
723,32.45510768890381,27,24,26,30,47,25,24,29,2
724,32.478604793548584,31,29,30,33,52,31,28,35,2
725,32.492493867874146,32,28,27,33,48,31,27,35,2
726,32.51543664932251,30,28,29,31,46,31,28,35,2
727,32.53795909881592,27,28,28,32,46,31,29,33,2
728,32.560945987701416,30,31,32,39,48,34,36,34,2
729,32.5750093460083,26,25,28,37,43,28,32,27,2
730,32.598082065582275,23,26,26,35,46,28,34,27,2
731,32.62060260772705,24,27,24,37,47,29,35,27,2
732,32.6350679397583,24,26,26,37,48,28,35,28,2
733,32.657604932785034,23,21,21,30,42,27,30,24,2
734,32.680179595947266,22,24,21,27,41,28,29,27,2
735,32.695810079574585,23,24,24,30,39,29,28,27,2
736,32.717543840408325,22,23,28,34,36,27,27,28,2
737,32.740012884140015,27,29,32,39,36,30,27,31,2
738,32.75503969192505,27,30,32,40,40,30,24,32,2
739,32.77794337272644,29,30,32,41,42,30,26,32,2
740,32.80022144317627,29,31,34,42,42,32,24,32,2
741,32.82319712638855,29,29,31,37,40,31,23,33,2
742,32.837605237960815,25,25,28,35,43,28,24,31,2
743,32.86089205741882,26,24,28,32,39,26,24,31,2
744,32.87476849555969,25,22,28,36,42,27,27,29,2
745,32.89730095863342,26,20,24,35,48,25,26,29,2
746,32.92004990577698,27,26,25,37,51,27,25,29,2
747,32.934988498687744,29,27,23,34,46,31,30,31,2
748,32.95765423774719,26,27,24,36,48,31,31,31,2
749,32.98005223274231,25,28,24,32,47,30,29,32,2
750,32.99798369407654,26,31,27,31,42,30,30,33,2
751,33.01783847808838,25,27,27,28,40,28,34,33,2
752,33.03962063789368,23,26,27,28,40,24,30,30,2
753,33.05505728721619,26,28,29,28,41,27,30,30,2
754,33.08612775802612,30,28,29,28,35,25,32,32,2
755,33.100425720214844,29,27,27,26,33,26,33,31,2
756,33.115153312683105,32,27,30,30,41,28,33,33,2
757,33.137659549713135,32,27,30,33,50,30,33,35,2
758,33.160197257995605,31,25,27,32,49,29,32,35,2
759,33.17516541481018,30,25,27,32,51,31,30,35,2
760,33.19810152053833,29,24,27,33,53,30,28,36,2
761,33.22010660171509,27,26,25,32,51,31,25,34,2
762,33.23491954803467,27,23,25,30,46,29,23,32,2
763,33.257563829422,27,24,27,29,46,27,26,28,2
764,33.28002452850342,30,28,31,34,48,31,30,27,2
765,33.29509091377258,30,27,30,33,45,30,33,27,2
766,33.31759786605835,29,26,31,31,40,29,34,27,2
767,33.339975357055664,30,27,31,31,36,30,37,29,2
768,33.35499858856201,28,26,30,31,34,31,35,32,2
769,33.37877011299133,23,25,25,27,31,29,31,29,2
770,33.40050768852234,20,24,24,27,33,27,29,29,2
771,33.415438413619995,25,24,23,29,38,27,29,30,2
772,33.437660694122314,23,27,21,33,35,32,25,30,2
773,33.46004366874695,25,27,24,33,41,34,26,29,2
774,33.475147008895874,26,25,25,35,44,34,29,30,2
775,33.497761487960815,30,27,28,37,44,37,29,30,2
776,33.52006411552429,30,26,27,40,45,36,31,30,2
777,33.54423785209656,30,23,28,38,46,33,30,27,2
778,33.55771255493164,31,25,28,44,58,33,31,26,2
779,33.58016514778137,33,23,30,46,59,34,32,25,2
780,33.603225231170654,31,24,30,46,60,30,32,22,2
781,33.617610931396484,28,23,29,45,58,30,30,23,2
782,33.64045453071594,29,24,31,43,59,31,30,24,2
783,33.6636803150177,29,23,34,36,43,30,31,25,2
784,33.67766237258911,27,23,32,33,39,29,28,25,2
785,33.70763897895813,26,22,29,31,36,30,27,28,2
786,33.72331929206848,28,22,29,29,35,31,28,29,2
787,33.73761534690857,30,24,28,31,36,31,29,31,2
788,33.759774923324585,28,21,22,29,40,27,28,30,2
789,33.78351044654846,31,24,25,29,37,27,30,32,2
790,33.7989821434021,33,26,27,38,53,34,31,34,2
791,33.820164918899536,33,26,28,38,55,36,30,33,2
792,33.843329191207886,31,24,27,36,55,35,27,31,2
793,33.8575234413147,31,26,28,39,59,39,28,32,2
794,33.88025212287903,27,26,27,38,60,38,26,32,2
795,33.90316939353943,24,24,24,28,45,30,23,29,2
796,33.917460918426514,21,24,24,29,45,27,25,30,2
797,33.94049906730652,23,26,26,33,47,34,30,32,2
798,33.96445965766907,24,25,26,33,40,29,29,31,2
799,33.97786092758179,24,24,26,36,45,34,28,29,2
800,34.00022768974304,24,22,26,37,45,34,29,30,2
801,34.023661613464355,25,23,28,36,43,34,27,26,2
802,34.03758406639099,26,24,27,35,42,29,27,25,2
803,34.067838191986084,23,24,27,36,45,29,29,26,2
804,34.08332324028015,25,24,25,33,37,26,29,26,2
805,34.098114013671875,25,25,25,32,38,26,27,27,2
806,34.120033979415894,23,25,21,31,42,26,26,28,2
807,34.14333391189575,22,23,23,31,42,29,25,30,2
808,34.1576201915741,24,22,21,28,37,31,23,29,2
809,34.18021059036255,25,21,20,30,42,30,24,29,2
810,34.20431637763977,27,21,22,36,50,31,24,29,2
811,34.217495918273926,27,20,22,37,49,31,26,30,2
812,34.24081325531006,26,19,21,35,49,26,25,30,2
813,34.27084255218506,24,17,21,34,48,24,26,30,2
814,34.27766299247742,22,18,23,33,48,23,26,31,2
815,34.300161838531494,18,20,21,28,38,22,27,31,2
816,34.323752880096436,22,21,23,29,36,25,25,31,2
817,34.33777952194214,21,21,21,29,36,24,28,31,2
818,34.360235929489136,22,24,24,31,37,24,28,30,2
819,34.38283157348633,23,24,23,32,35,24,30,32,2
820,34.39773368835449,26,29,29,43,46,35,31,34,2
821,34.419883012771606,27,31,28,46,54,38,37,36,2
822,34.443262577056885,28,32,30,47,57,39,36,37,2
823,34.47353553771973,29,31,31,47,59,41,34,37,2
824,34.48013114929199,31,31,32,49,60,44,33,37,2
825,34.503634214401245,30,28,29,41,53,35,33,35,2
826,34.52580761909485,26,26,30,36,49,35,31,36,2
827,34.54020285606384,27,29,29,38,52,37,32,36,2
828,34.5632107257843,28,29,29,38,50,36,34,36,2
829,34.58825707435608,25,29,29,32,46,33,33,36,2
830,34.600165367126465,25,27,27,29,46,33,31,35,2
831,34.62324595451355,24,26,25,29,43,27,31,30,2
832,34.648826599121094,23,23,25,26,38,24,33,29,2
833,34.66012763977051,21,21,25,25,37,24,34,28,2
834,34.683534145355225,23,24,25,25,38,24,38,27,2
835,34.70585918426514,25,24,26,27,40,28,40,26,2
836,34.72007513046265,26,24,26,26,39,29,38,27,2
837,34.750266551971436,26,23,25,25,40,28,34,28,2
838,34.765321254730225,25,24,24,28,45,31,37,29,2
839,34.780187129974365,25,21,24,28,46,30,34,27,2
840,34.80350589752197,22,21,22,30,46,26,32,28,2
841,34.826245069503784,23,20,21,30,43,25,31,28,2
842,34.840123414993286,24,23,26,34,46,32,34,25,2
843,34.86357665061951,25,21,24,33,43,31,28,23,2
844,34.885852098464966,24,22,24,34,43,32,32,27,2
845,34.90033149719238,26,23,28,41,48,38,32,31,2
846,34.92283844947815,26,24,30,42,49,40,33,30,2
847,34.94528770446777,24,23,29,42,45,36,30,34,2
848,34.960216760635376,24,24,29,40,44,34,29,35,2
849,34.98461127281189,27,25,31,44,47,37,25,34,2
850,35.00538730621338,27,25,29,42,45,31,26,29,2
851,35.01959538459778,27,26,28,40,43,30,25,35,2
852,35.04278326034546,31,26,28,40,44,32,27,31,2
853,35.0663628578186,30,28,29,41,51,33,26,31,2
854,35.07960319519043,29,28,25,34,48,29,27,30,2
855,35.10278868675232,27,27,24,30,51,32,28,32,2
856,35.12582087516785,26,28,26,32,53,33,29,26,2
857,35.140565395355225,20,26,22,28,49,28,28,27,2
858,35.16291904449463,21,25,24,28,42,30,34,27,2
859,35.18519377708435,24,27,27,34,52,33,36,27,2
860,35.200042963027954,25,27,29,35,50,31,34,25,2
861,35.223350286483765,26,25,27,36,52,32,32,25,2
862,35.24907827377319,27,27,28,38,52,32,33,24,2
863,35.259520053863525,27,28,27,37,53,31,30,23,2
864,35.28357672691345,24,24,27,36,43,31,30,26,2
865,35.30546951293945,26,23,24,35,38,30,31,30,2
866,35.31961965560913,27,25,25,33,34,31,30,29,2
867,35.343759298324585,29,25,30,41,46,38,33,31,2
868,35.36693024635315,28,22,30,43,47,39,32,32,2
869,35.37980651855469,30,24,30,40,47,36,31,30,2
870,35.40338659286499,29,25,32,40,49,35,28,26,2
871,35.426079988479614,29,25,34,42,51,36,32,27,2
872,35.44862174987793,26,25,28,33,43,31,28,25,2
873,35.4635066986084,24,25,26,32,45,30,27,30,2
874,35.48589205741882,22,25,27,34,45,31,25,32,2
875,35.50867795944214,21,24,27,34,45,34,28,32,2
876,35.52367353439331,21,25,25,33,45,33,25,32,2
877,35.54597234725952,21,23,25,32,42,32,26,34,2
878,35.56833457946777,24,24,31,32,40,32,28,30,2
879,35.58338904380798,24,24,28,32,39,34,29,29,2
880,35.60600399971008,25,25,27,33,39,30,28,31,2
881,35.62839198112488,26,24,26,33,40,29,30,30,2
882,35.650681495666504,26,25,27,34,42,31,28,31,2
883,35.66575264930725,25,25,26,41,54,38,32,31,2
884,35.68828058242798,27,25,27,40,55,36,31,32,2
885,35.70339274406433,25,26,26,38,53,37,31,31,2
886,35.72580909729004,24,28,27,41,55,36,30,31,2
887,35.7483332157135,26,28,28,42,57,36,30,28,2
888,35.76351022720337,24,27,25,33,44,25,24,27,2
889,35.78574204444885,22,26,27,34,46,30,26,29,2
890,35.808255195617676,22,25,29,34,47,29,29,30,2
891,35.82195997238159,21,22,27,33,46,33,30,31,2
892,35.84994387626648,20,20,26,33,44,31,29,31,2
893,35.86816382408142,21,20,27,33,45,33,30,33,2
894,35.8855562210083,22,20,24,31,48,28,29,32,2
895,35.90574765205383,23,23,29,34,49,30,27,31,2
896,35.92828559875488,21,22,27,31,45,26,25,30,2
897,35.94260382652283,24,23,29,28,44,26,26,32,2
898,35.967344522476196,26,25,31,32,52,28,26,32,2
899,35.988149881362915,26,26,30,31,45,29,24,30,2
900,36.01085019111633,26,26,26,30,46,29,23,29,2
901,36.02584481239319,27,27,27,31,46,30,25,31,2
902,36.0484459400177,25,26,27,32,47,28,24,27,2
903,36.06274104118347,23,26,22,28,36,25,23,28,2
904,36.08575654029846,22,25,26,27,40,26,23,29,2
905,36.10825324058533,25,22,24,25,41,23,23,31,2
906,36.121971130371094,25,23,26,26,42,22,22,31,2
907,36.146247148513794,28,25,25,27,40,24,22,32,2
908,36.16828918457031,27,22,28,27,39,23,21,33,2
909,36.1824746131897,27,21,28,33,39,23,25,34,2
910,36.205822229385376,25,20,28,33,35,25,26,32,2
911,36.228654861450195,25,19,29,32,36,26,27,29,2
912,36.24251127243042,22,17,30,32,37,26,27,30,2
913,36.26582884788513,22,18,28,33,41,27,28,27,2
914,36.28844881057739,20,17,26,32,44,29,27,31,2
915,36.30274724960327,19,20,27,36,49,29,25,32,2
916,36.325785398483276,19,20,23,37,49,26,25,33,2
917,36.348387241363525,22,22,23,36,52,26,27,34,2
918,36.37066721916199,24,21,24,34,48,26,26,34,2
919,36.38574171066284,26,23,24,29,47,24,23,27,2
920,36.40865921974182,27,23,24,28,50,31,27,27,2
921,36.43190622329712,26,23,25,30,54,36,29,25,2
922,36.44585585594177,28,21,24,31,54,37,32,22,2
923,36.46939516067505,26,25,24,33,54,36,34,24,2
924,36.49066424369812,30,27,28,36,54,38,35,27,2
925,36.50583004951477,29,27,30,33,46,34,35,29,2
926,36.528236865997314,32,28,33,33,41,29,32,32,2
927,36.55078482627869,32,30,33,34,40,30,29,34,2
928,36.565723180770874,34,27,34,33,43,30,28,36,2
929,36.588176012039185,30,28,32,36,44,27,26,35,2
930,36.610787868499756,30,27,30,36,43,26,24,35,2
931,36.625704526901245,29,26,28,35,43,28,24,34,2
932,36.65129017829895,26,26,29,39,50,29,26,33,2
933,36.67087721824646,24,26,28,39,47,29,24,31,2
934,36.68571138381958,22,24,27,35,46,32,25,32,2
935,36.70760178565979,23,25,28,35,47,30,24,33,2
936,36.73093581199646,23,24,27,32,50,30,25,32,2
937,36.74575734138489,23,23,25,27,42,28,23,29,2
938,36.76828098297119,23,24,26,27,44,28,25,32,2
939,36.79071235656738,27,27,26,32,43,26,24,29,2
940,36.80514883995056,26,26,24,31,41,26,24,28,2
941,36.828240156173706,25,25,24,32,36,25,24,30,2
942,36.851523876190186,26,24,27,33,41,27,23,32,2
943,36.86566686630249,28,24,28,40,45,31,29,29,2
944,36.88832378387451,26,22,27,34,42,29,28,29,2
945,36.910757064819336,26,21,27,33,45,30,30,29,2
946,36.92512774467468,29,23,32,39,48,32,29,28,2
947,36.94789171218872,30,26,29,37,42,33,31,28,2
948,36.97027111053467,27,26,31,31,38,30,25,29,2
949,36.98550772666931,26,24,30,31,40,30,24,33,2
950,37.008800745010376,26,24,30,34,39,30,24,32,2
951,37.03084969520569,24,23,26,31,42,30,25,32,2
952,37.04504132270813,24,23,27,34,42,28,24,30,2
953,37.06825351715088,26,23,25,38,47,31,27,30,2
954,37.0913507938385,29,25,28,42,48,35,29,26,2
955,37.104995250701904,31,26,31,45,51,37,30,29,2
956,37.12834906578064,32,29,30,44,48,36,29,29,2
957,37.15088653564453,32,30,33,45,52,36,30,29,2
958,37.16513967514038,29,29,32,41,47,32,28,28,2
959,37.187845945358276,27,30,31,40,51,30,29,28,2
960,37.21078181266785,24,30,28,35,48,27,30,27,2
961,37.225001096725464,22,28,30,33,47,27,31,24,2
962,37.2489960193634,20,26,26,30,46,27,31,25,2
963,37.27026844024658,24,31,28,38,52,31,36,27,2
964,37.284626483917236,22,28,26,38,50,28,33,28,2
965,37.30825972557068,25,29,26,39,51,30,32,27,2
966,37.33160471916199,28,29,26,42,49,29,29,27,2
967,37.35323929786682,29,30,29,47,57,32,30,27,2
968,37.36931037902832,29,25,30,44,57,29,25,26,2
969,37.39121413230896,30,25,30,44,56,32,25,25,2
970,37.41351795196533,30,23,31,45,58,33,22,27,2
971,37.428226709365845,27,23,29,42,58,32,23,27,2
972,37.45013904571533,27,21,28,40,56,32,21,25,2
973,37.473543882369995,25,20,24,36,52,32,22,24,2
974,37.48852753639221,27,23,24,36,50,31,24,26,2
975,37.51030778884888,26,23,23,35,48,30,25,26,2
976,37.53328990936279,27,24,23,38,49,31,29,27,2
977,37.54855394363403,28,26,23,35,42,30,30,29,2
978,37.57068943977356,29,26,26,35,40,29,32,31,2
979,37.59325814247131,27,24,24,32,40,28,30,29,2
980,37.60879468917847,27,24,26,30,40,27,30,27,2
981,37.63117837905884,27,26,31,33,45,29,29,28,2
982,37.65381121635437,28,24,31,36,44,29,30,27,2
983,37.66833710670471,31,29,33,50,58,43,34,26,2
984,37.69084644317627,30,29,33,51,57,45,36,30,2
985,37.71325373649597,32,31,35,53,58,45,36,31,2
986,37.72742414474487,34,32,36,61,65,51,39,28,2
987,37.75092840194702,32,32,36,60,64,50,37,33,2
988,37.77315855026245,28,28,34,49,51,39,31,32,2
989,37.78744983673096,28,31,34,51,52,40,31,30,2
990,37.810689210891724,25,28,34,51,50,41,30,30,2
991,37.83379602432251,24,28,33,42,51,36,29,30,2
992,37.84773325920105,23,29,35,43,54,37,28,24,2
993,37.87171649932861,23,29,34,44,53,36,29,24,2
994,37.8931884765625,23,26,36,43,55,36,30,24,2
995,37.90753221511841,25,28,36,41,56,38,32,24,2
996,37.93093705177307,23,24,31,35,40,35,29,26,2
997,37.95357370376587,23,23,29,33,38,35,30,29,2
998,37.974971532821655,24,23,27,32,39,35,30,30,2
999,37.99214005470276,25,22,24,27,36,32,29,29,2
1000,38.01241374015808,26,18,22,28,38,31,30,30,2
1001,38.035006523132324,25,21,22,30,43,32,30,30,2
1002,38.05180382728577,30,23,21,27,44,31,35,29,2
1003,38.07427096366882,33,23,26,32,48,34,37,27,2
1004,38.0954225063324,34,24,25,34,52,34,37,28,2
1005,38.11171817779541,34,25,25,35,50,33,36,27,2
1006,38.139994621276855,35,25,25,35,46,30,35,25,2
1007,38.1544451713562,32,21,24,35,47,29,29,25,2
1008,38.17263674736023,28,23,22,32,45,28,27,28,2
